sample4u_at_750.00nm_cut_at_1200.50Y_01.dat
19.06.2023
10:53:34
cut middle at Y: 1200.50
top cursor: 1249 down cursor: 1152 mean of: 97 lines , 2560 datapoints
wavelength(nm)	intensity[arb. units]
585.996	3263.938
586.124	3183.619
586.252	3129.928
586.380	3170.948
586.508	3186.021
586.637	3227.144
586.765	3151.309
586.893	3176.856
587.021	3219.948
587.149	3155.567
587.277	3178.784
587.405	3176.619
587.533	3203.485
587.662	3269.299
587.790	3188.402
587.918	3188.722
588.046	3192.866
588.174	3217.144
588.302	3201.320
588.430	3196.660
588.558	3238.588
588.687	3244.320
588.815	3193.155
588.943	3260.196
589.071	3235.866
589.199	3247.526
589.327	3225.546
589.455	3325.124
589.583	3248.959
589.712	3254.876
589.840	3231.196
589.968	3255.299
590.096	3277.443
590.224	3209.134
590.352	3292.691
590.480	3239.062
590.608	3264.258
590.737	3266.289
590.865	3383.701
590.993	3243.732
591.121	3313.856
591.249	3268.515
591.377	3275.165
591.505	3405.175
591.633	3299.959
591.762	3264.639
591.890	3277.814
592.018	3385.227
592.146	3271.474
592.274	3304.660
592.402	3265.536
592.530	3478.814
592.658	3369.381
592.787	3340.588
592.915	3378.464
593.043	3301.144
593.171	3330.309
593.299	3340.464
593.427	3339.876
593.555	3358.278
593.683	3352.742
593.812	3382.196
593.940	3359.639
594.068	3371.505
594.196	3354.124
594.324	3369.887
594.452	3542.485
594.580	3392.268
594.708	3444.155
594.837	3394.835
594.965	3490.680
595.093	3426.309
595.221	3453.619
595.349	3446.330
595.477	3459.918
595.605	3449.742
595.733	3473.567
595.862	3490.412
595.990	3529.062
596.118	3572.670
596.246	3611.588
596.374	3532.330
596.502	3530.938
596.630	3551.268
596.758	3539.546
596.887	3543.247
597.015	3526.423
597.143	3555.155
597.271	3545.072
597.399	3573.021
597.527	3535.938
597.655	3523.165
597.783	3533.309
597.912	3532.402
598.040	3578.258
598.168	3505.216
598.296	3506.835
598.424	3690.773
598.552	3526.320
598.680	3543.433
598.808	3562.691
598.937	3515.412
599.065	3553.515
599.193	3589.866
599.321	3574.608
599.449	3536.814
599.577	3538.907
599.705	3549.454
599.833	3523.546
599.962	3524.835
600.090	3570.072
600.218	3577.835
600.346	3563.660
600.474	3533.660
600.602	3521.557
600.730	3533.454
600.858	3534.608
600.987	3596.515
601.115	3576.031
601.243	3623.753
601.371	3666.443
601.499	3644.959
601.627	3622.588
601.755	3600.093
601.883	3660.670
602.012	3547.247
602.140	3680.938
602.268	3632.969
602.396	3746.711
602.524	3627.351
602.652	3688.237
602.780	3697.216
602.908	3699.206
603.037	3741.577
603.165	3707.711
603.293	3720.309
603.421	3729.804
603.549	3719.443
603.677	3758.423
603.805	3734.990
603.933	3747.464
604.062	3791.082
604.190	3812.361
604.318	3822.155
604.446	3788.948
604.574	3875.351
604.702	3896.268
604.830	3832.103
604.958	3868.660
605.087	3896.608
605.215	3902.619
605.343	3959.876
605.471	3891.227
605.599	3919.485
605.727	3984.247
605.855	3958.330
605.983	3944.351
606.112	3967.340
606.240	3943.000
606.368	3986.784
606.496	3942.330
606.624	4024.938
606.752	3948.959
606.880	4018.619
607.008	3956.443
607.137	3966.959
607.265	4067.227
607.393	4005.742
607.521	4051.876
607.649	3975.773
607.777	4007.340
607.905	4035.402
608.033	3979.887
608.162	4037.031
608.290	3995.938
608.418	4082.619
608.546	4065.526
608.674	4072.804
608.802	4034.237
608.930	4023.186
609.058	3993.392
609.187	4028.588
609.315	4022.784
609.443	4010.990
609.571	4117.412
609.699	4029.031
609.827	4108.856
609.955	4050.340
610.083	4005.598
610.212	4019.474
610.340	4011.072
610.468	4026.196
610.596	4050.093
610.724	4008.876
610.852	4065.897
610.980	4057.155
611.108	4009.392
611.237	4018.959
611.365	4028.701
611.493	4014.010
611.621	4032.979
611.749	4043.381
611.877	4106.722
612.005	4020.041
612.133	4083.371
612.262	4056.784
612.390	4116.041
612.518	4125.072
612.646	4030.010
612.774	4123.856
612.902	4124.722
613.030	4045.155
613.158	4120.021
613.287	4178.381
613.415	4093.825
613.543	4138.320
613.671	4148.134
613.799	4189.124
613.927	4201.289
614.055	4167.309
614.183	4204.825
614.312	4142.505
614.440	4296.979
614.568	4241.773
614.696	4223.072
614.824	4216.031
614.952	4260.598
615.080	4233.907
615.208	4261.443
615.337	4330.897
615.465	4243.773
615.593	4279.309
615.721	4286.629
615.849	4354.237
615.977	4283.052
616.105	4282.113
616.233	4316.237
616.362	4323.299
616.490	4317.515
616.618	4337.835
616.746	4436.247
616.874	4351.856
617.002	4361.340
617.130	4347.103
617.258	4335.423
617.387	4348.711
617.515	4379.371
617.643	4359.052
617.771	4444.340
617.899	4355.515
618.027	4462.186
618.155	4427.598
618.283	4400.103
618.412	4410.052
618.540	4471.320
618.668	4395.392
618.796	4420.392
618.924	4347.041
619.052	4424.918
619.180	4420.361
619.308	4432.701
619.437	4438.742
619.565	4446.959
619.693	4418.351
619.821	4471.072
619.949	4421.062
620.077	4454.433
620.205	4478.464
620.333	4510.443
620.462	4433.155
620.590	4454.031
620.718	4493.144
620.846	4489.247
620.974	4448.454
621.102	4484.186
621.230	4479.567
621.358	4617.546
621.487	4435.299
621.615	4490.165
621.743	4429.299
621.871	4544.619
621.999	4418.876
622.127	4474.237
622.255	4444.670
622.383	4436.474
622.512	4437.299
622.640	4457.649
622.768	4467.979
622.896	4543.237
623.024	4515.691
623.152	4436.670
623.280	4519.959
623.408	4450.227
623.537	4489.948
623.665	4459.309
623.793	4505.206
623.921	4503.299
624.049	4488.340
624.177	4461.268
624.305	4452.402
624.433	4500.794
624.562	4490.103
624.690	4626.175
624.818	4463.742
624.946	4516.371
625.074	4469.897
625.202	4444.464
625.330	4470.649
625.458	4583.629
625.587	4455.773
625.715	4544.062
625.843	4502.825
625.971	4510.309
626.099	4500.515
626.227	4522.701
626.355	4455.155
626.483	4568.320
626.612	4484.608
626.740	4505.031
626.868	4490.722
626.996	4560.670
627.124	4490.784
627.252	4478.577
627.380	4507.866
627.508	4481.959
627.637	4535.320
627.765	4502.175
627.893	4515.649
628.021	4628.763
628.149	4507.124
628.277	4625.309
628.405	4522.361
628.533	4568.825
628.662	4577.031
628.790	4647.340
628.918	4555.289
629.046	4685.763
629.174	4538.485
629.302	4615.072
629.430	4510.268
629.558	4612.794
629.687	4533.237
629.815	4602.784
629.943	4713.175
630.071	4619.948
630.199	4582.010
630.327	4616.485
630.455	4646.876
630.583	4612.464
630.712	4638.753
630.840	4670.392
630.968	4644.134
631.096	4628.825
631.224	4658.361
631.352	4761.010
631.480	4681.629
631.608	4836.979
631.737	4660.660
631.865	4783.691
631.993	4756.536
632.121	4837.330
632.249	4723.392
632.377	4715.928
632.505	4690.866
632.633	4663.485
632.762	4680.918
632.890	4672.103
633.018	4706.402
633.146	4683.649
633.274	4668.856
633.402	4746.969
633.530	4694.588
633.658	4696.454
633.787	4666.165
633.915	4678.010
634.043	4688.670
634.171	4708.010
634.299	4683.629
634.427	4660.742
634.555	4908.784
634.683	4692.093
634.812	4697.052
634.940	4644.608
635.068	4666.041
635.196	4644.794
635.324	4635.165
635.452	4674.165
635.580	4773.660
635.708	4597.526
635.837	4643.577
635.965	4648.691
636.093	4623.866
636.221	4642.670
636.349	4562.660
636.477	4603.196
636.605	4617.392
636.733	4561.515
636.862	4541.340
636.990	4600.742
637.118	4595.701
637.246	4547.072
637.374	4692.041
637.502	4541.216
637.630	4539.227
637.758	4583.701
637.887	4475.216
638.015	4647.753
638.143	4556.629
638.271	4516.495
638.399	4592.948
638.527	4492.062
638.655	4544.175
638.783	4511.062
638.912	4586.000
639.040	4502.082
639.168	4495.948
639.296	4477.309
639.424	4584.423
639.552	4505.680
639.680	4547.124
639.808	4515.320
639.937	4470.629
640.065	4437.515
640.193	4440.134
640.321	4552.299
640.449	4536.052
640.577	4444.598
640.705	4447.381
640.833	4475.412
640.962	4543.289
641.090	4421.588
641.218	4463.948
641.346	4541.278
641.474	4448.505
641.602	4451.247
641.730	4449.144
641.858	4428.753
641.987	4400.577
642.115	4585.227
642.243	4473.876
642.371	4602.454
642.499	4476.113
642.627	4513.495
642.755	4443.639
642.883	4479.165
643.012	4475.670
643.140	4530.804
643.268	4511.402
643.396	4429.289
643.524	4444.845
643.652	4535.680
643.780	4455.670
643.908	4430.526
644.037	4546.041
644.165	4548.670
644.293	4635.825
644.421	4435.907
644.549	4551.392
644.677	4529.577
644.805	4486.485
644.933	4481.103
645.062	4475.340
645.190	4592.722
645.318	4486.052
645.446	4412.577
645.574	4416.691
645.702	4499.670
645.830	4470.649
645.958	4436.588
646.087	4411.938
646.215	4384.866
646.343	4396.742
646.471	4580.464
646.599	4412.856
646.727	4384.082
646.855	4409.907
646.983	4385.402
647.112	4450.010
647.240	4386.443
647.368	4462.309
647.496	4367.175
647.624	4376.454
647.752	4362.856
647.880	4309.247
648.008	4372.072
648.137	4379.206
648.265	4323.649
648.393	4411.938
648.521	4325.052
648.649	4445.701
648.777	4388.546
648.905	4313.505
649.033	4386.052
649.162	4290.918
649.290	4264.629
649.418	4253.722
649.546	4426.897
649.674	4258.010
649.802	4260.938
649.930	4227.897
650.058	4188.062
650.187	4250.979
650.315	4228.608
650.443	4255.340
650.571	4197.247
650.699	4187.155
650.827	4187.577
650.955	4152.814
651.083	4241.753
651.212	4115.258
651.340	4187.505
651.468	4143.186
651.596	4181.546
651.724	4178.299
651.852	4124.876
651.980	4117.557
652.108	4139.134
652.237	4114.722
652.365	4072.948
652.493	4086.938
652.621	4042.557
652.749	4069.536
652.877	4060.000
653.005	4087.206
653.133	4023.639
653.262	4003.701
653.390	4010.485
653.518	4155.845
653.646	3994.093
653.774	3973.897
653.902	4058.340
654.030	4025.495
654.158	3925.794
654.287	4010.206
654.415	3962.052
654.543	3981.722
654.671	3907.124
654.799	3924.515
654.927	3904.649
655.055	3902.773
655.183	3894.454
655.312	3883.196
655.440	3873.082
655.568	3861.959
655.696	3916.289
655.824	3850.928
655.952	3861.907
656.080	3840.969
656.208	3821.031
656.337	3842.278
656.465	3980.320
656.593	3800.784
656.721	3864.918
656.849	3919.485
656.977	3712.835
657.105	3798.299
657.233	3769.340
657.362	3830.928
657.490	3760.979
657.618	3761.845
657.746	3775.330
657.874	3725.887
658.002	3731.495
658.130	3722.206
658.258	3719.433
658.387	3686.371
658.515	3687.876
658.643	3683.856
658.771	3723.031
658.899	3650.010
659.027	3667.340
659.155	3651.052
659.283	3638.474
659.412	3655.103
659.540	3630.268
659.668	3662.567
659.796	3679.856
659.924	3639.670
660.052	3686.784
660.180	3569.835
660.308	3658.763
660.437	3630.155
660.565	3607.124
660.693	3576.093
660.821	3746.670
660.949	3548.196
661.077	3581.732
661.205	3705.969
661.333	3553.567
661.462	3519.072
661.590	3634.670
661.718	3554.546
661.846	3573.753
661.974	3506.835
662.102	3530.897
662.230	3566.505
662.358	3464.041
662.487	3520.948
662.615	3502.082
662.743	3517.155
662.871	3479.505
662.999	3417.247
663.127	3450.959
663.255	3453.608
663.383	3572.649
663.512	3405.309
663.640	3478.856
663.768	3465.423
663.896	3407.835
664.024	3422.000
664.152	3395.763
664.280	3475.660
664.408	3376.856
664.537	3385.825
664.665	3385.320
664.793	3385.526
664.921	3367.495
665.049	3445.773
665.177	3351.670
665.305	3362.701
665.433	3352.979
665.562	3473.309
665.690	3365.794
665.818	3481.124
665.946	3301.000
666.074	3300.010
666.202	3297.495
666.330	3275.722
666.458	3365.536
666.587	3276.464
666.715	3270.845
666.843	3267.443
666.971	3299.454
667.099	3300.670
667.227	3337.454
667.355	3327.443
667.483	3250.175
667.612	3278.258
667.740	3253.866
667.868	3224.423
667.996	3215.732
668.124	3275.340
668.252	3299.639
668.380	3210.103
668.508	3236.629
668.637	3209.742
668.765	3240.701
668.893	3228.433
669.021	3161.918
669.149	3230.938
669.277	3147.443
669.405	3254.268
669.533	3220.629
669.662	3175.052
669.790	3146.959
669.918	3179.010
670.046	3296.526
670.174	3131.258
670.302	3100.711
670.430	3070.144
670.558	3148.485
670.687	3234.299
670.815	3077.320
670.943	3134.918
671.071	3049.515
671.199	3032.619
671.327	3043.443
671.455	3056.495
671.583	3019.897
671.712	3025.845
671.840	3061.598
671.968	3143.536
672.096	3147.351
672.224	2947.113
672.352	2946.258
672.480	2919.412
672.608	2993.588
672.737	2952.227
672.865	2901.155
672.993	2933.196
673.121	2914.412
673.249	2908.784
673.377	2860.186
673.505	2852.639
673.633	2897.113
673.762	2858.722
673.890	2852.278
674.018	2875.567
674.146	2842.072
674.274	2817.763
674.402	2870.175
674.530	2808.588
674.658	2804.990
674.787	2799.320
674.915	2887.485
675.043	2799.412
675.171	2789.361
675.299	2755.082
675.427	2748.258
675.555	2753.794
675.683	2749.031
675.812	2737.928
675.940	2735.289
676.068	2706.392
676.196	2716.165
676.324	2673.072
676.452	2677.691
676.580	2667.845
676.708	2662.010
676.837	2654.691
676.965	2698.031
677.093	2705.474
677.221	2644.763
677.349	2633.670
677.477	2658.660
677.605	2628.268
677.733	2624.474
677.862	2611.732
677.990	2607.557
678.118	2593.887
678.246	2557.701
678.374	2591.526
678.502	2578.990
678.630	2547.227
678.758	2549.392
678.887	2600.103
679.015	2521.227
679.143	2528.825
679.271	2509.629
679.399	2503.464
679.527	2521.165
679.655	2521.567
679.783	2463.608
679.912	2479.918
680.040	2511.536
680.168	2478.010
680.296	2469.598
680.424	2467.196
680.552	2449.773
680.680	2444.856
680.808	2441.381
680.937	2435.381
681.065	2418.175
681.193	2406.371
681.321	2401.041
681.449	2387.649
681.577	2396.454
681.705	2370.660
681.833	2378.763
681.962	2387.062
682.090	2363.433
682.218	2373.866
682.346	2392.629
682.474	2331.711
682.602	2346.680
682.730	2341.990
682.858	2331.835
682.987	2315.794
683.115	2327.010
683.243	2328.361
683.371	2326.381
683.499	2317.567
683.627	2306.763
683.755	2305.691
683.883	2278.371
684.012	2297.340
684.140	2278.454
684.268	2262.969
684.396	2265.392
684.524	2262.691
684.652	2281.701
684.780	2254.876
684.908	2284.041
685.037	2267.052
685.165	2248.186
685.293	2259.608
685.421	2242.887
685.549	2221.804
685.677	2237.649
685.805	2226.041
685.933	2229.948
686.062	2238.876
686.190	2214.918
686.318	2205.237
686.446	2192.557
686.574	2187.381
686.702	2190.649
686.830	2192.969
686.958	2201.619
687.087	2191.443
687.215	2168.371
687.343	2157.072
687.471	2193.134
687.599	2168.289
687.727	2129.320
687.855	2134.711
687.983	2136.979
688.112	2149.598
688.240	2123.299
688.368	2146.423
688.496	2124.299
688.624	2102.794
688.752	2122.041
688.880	2089.835
689.008	2089.320
689.137	2097.969
689.265	2085.371
689.393	2071.546
689.521	2061.320
689.649	2084.041
689.777	2068.773
689.905	2057.660
690.033	2049.948
690.162	2050.443
690.290	2038.557
690.418	2028.515
690.546	2039.753
690.674	2028.237
690.802	2015.052
690.930	2006.907
691.058	1994.722
691.187	1992.660
691.315	1986.732
691.443	1985.134
691.571	1992.124
691.699	1971.546
691.827	1967.175
691.955	1961.402
692.083	1948.546
692.212	1940.763
692.340	1943.093
692.468	1938.443
692.596	1927.526
692.724	1919.103
692.852	1911.423
692.980	1905.289
693.108	1908.680
693.237	1885.351
693.365	1882.887
693.493	1887.928
693.621	1867.732
693.749	1870.443
693.877	1875.536
694.005	1833.258
694.133	1840.041
694.262	1834.495
694.390	1822.773
694.518	1832.505
694.646	1812.000
694.774	1814.175
694.902	1811.320
695.030	1789.845
695.158	1814.289
695.287	1785.907
695.415	1796.505
695.543	1780.794
695.671	1770.186
695.799	1762.814
695.927	1761.237
696.055	1755.278
696.183	1760.753
696.312	1758.330
696.440	1742.485
696.568	1728.505
696.696	1718.134
696.824	1717.206
696.952	1705.113
697.080	1713.660
697.208	1689.505
697.337	1699.732
697.465	1686.887
697.593	1694.474
697.721	1697.289
697.849	1677.144
697.977	1666.876
698.105	1680.588
698.233	1679.495
698.362	1636.072
698.490	1660.680
698.618	1653.918
698.746	1629.041
698.874	1628.959
699.002	1622.175
699.130	1623.361
699.258	1622.969
699.387	1610.062
699.515	1603.701
699.643	1616.330
699.771	1590.907
699.899	1581.227
700.027	1577.979
700.155	1583.258
700.283	1560.856
700.412	1545.309
700.540	1569.722
700.668	1555.134
700.796	1536.887
700.924	1544.124
701.052	1529.299
701.180	1527.588
701.308	1511.216
701.437	1507.670
701.565	1506.031
701.693	1496.093
701.821	1512.041
701.949	1497.186
702.077	1481.567
702.205	1491.691
702.333	1471.000
702.462	1465.577
702.590	1464.526
702.718	1454.546
702.846	1448.753
702.974	1428.577
703.102	1431.567
703.230	1429.103
703.358	1403.835
703.487	1406.155
703.615	1413.474
703.743	1412.021
703.871	1392.804
703.999	1397.237
704.127	1390.330
704.255	1367.742
704.383	1357.113
704.512	1373.546
704.640	1331.845
704.768	1346.113
704.896	1353.155
705.024	1327.010
705.152	1339.588
705.280	1346.938
705.408	1326.969
705.537	1319.608
705.665	1325.031
705.793	1298.979
705.921	1305.144
706.049	1297.526
706.177	1277.825
706.305	1293.536
706.433	1294.691
706.562	1281.186
706.690	1275.938
706.818	1268.784
706.946	1258.155
707.074	1261.938
707.202	1253.072
707.330	1237.505
707.458	1245.021
707.587	1232.299
707.715	1236.691
707.843	1209.000
707.971	1220.928
708.099	1213.536
708.227	1206.753
708.355	1209.258
708.483	1208.381
708.612	1214.588
708.740	1197.948
708.868	1191.021
708.996	1179.588
709.124	1180.412
709.252	1178.784
709.380	1177.093
709.508	1162.041
709.637	1159.082
709.765	1152.454
709.893	1151.340
710.021	1152.124
710.149	1154.402
710.277	1139.897
710.405	1130.423
710.533	1132.165
710.662	1133.928
710.790	1124.371
710.918	1119.258
711.046	1131.010
711.174	1117.082
711.302	1127.052
711.430	1111.309
711.558	1114.227
711.687	1103.237
711.815	1095.340
711.943	1104.887
712.071	1099.216
712.199	1085.907
712.327	1080.402
712.455	1088.237
712.583	1083.196
712.712	1071.392
712.840	1062.629
712.968	1070.495
713.096	1060.062
713.224	1057.124
713.352	1049.701
713.480	1059.969
713.608	1051.351
713.737	1041.361
713.865	1048.351
713.993	1053.536
714.121	1026.619
714.249	1040.691
714.377	1030.897
714.505	1032.835
714.633	1026.464
714.762	1016.000
714.890	1014.814
715.018	1013.196
715.146	1015.474
715.274	1009.608
715.402	1006.701
715.530	997.082
715.658	987.258
715.787	986.763
715.915	993.845
716.043	996.804
716.171	976.351
716.299	978.546
716.427	982.000
716.555	974.711
716.683	974.794
716.812	966.402
716.940	966.175
717.068	972.247
717.196	955.351
717.324	956.165
717.452	944.990
717.580	955.299
717.708	935.557
717.837	944.588
717.965	939.258
718.093	943.072
718.221	930.237
718.349	935.485
718.477	940.897
718.605	927.443
718.733	930.856
718.862	912.763
718.990	918.268
719.118	915.082
719.246	906.495
719.374	903.268
719.502	899.629
719.630	905.722
719.758	894.402
719.887	889.814
720.015	885.165
720.143	878.845
720.271	873.918
720.399	879.000
720.527	862.598
720.655	857.381
720.783	861.619
720.912	855.072
721.040	850.144
721.168	853.351
721.296	839.557
721.424	842.474
721.552	829.124
721.680	820.835
721.808	825.866
721.937	824.598
722.065	819.299
722.193	821.381
722.321	826.412
722.449	821.330
722.577	812.216
722.705	804.619
722.833	812.402
722.962	801.701
723.090	794.732
723.218	794.629
723.346	794.784
723.474	789.938
723.602	784.268
723.730	779.433
723.858	783.082
723.987	776.959
724.115	775.495
724.243	772.175
724.371	766.557
724.499	768.258
724.627	755.629
724.755	758.845
724.883	756.072
725.012	752.113
725.140	755.351
725.268	752.113
725.396	741.639
725.524	740.639
725.652	736.680
725.780	736.897
725.908	729.031
726.037	727.206
726.165	724.804
726.293	722.052
726.421	723.268
726.549	717.619
726.677	711.918
726.805	709.794
726.933	709.031
727.062	705.010
727.190	703.010
727.318	698.309
727.446	698.082
727.574	697.567
727.702	686.619
727.830	687.340
727.958	688.464
728.087	683.701
728.215	675.021
728.343	675.021
728.471	673.845
728.599	675.258
728.727	674.196
728.855	672.309
728.983	658.072
729.112	660.072
729.240	655.804
729.368	662.701
729.496	654.557
729.624	651.763
729.752	652.887
729.880	649.773
730.008	643.474
730.137	649.649
730.265	643.124
730.393	637.351
730.521	634.196
730.649	634.526
730.777	632.186
730.905	627.124
731.033	621.701
731.162	630.320
731.290	629.990
731.418	624.371
731.546	617.825
731.674	615.619
731.802	614.247
731.930	616.000
732.058	605.186
732.187	607.515
732.315	601.732
732.443	608.330
732.571	602.732
732.699	600.660
732.827	602.979
732.955	594.381
733.083	593.722
733.212	597.835
733.340	597.536
733.468	595.062
733.596	585.639
733.724	585.794
733.852	578.639
733.980	573.825
734.108	581.670
734.237	579.082
734.365	577.186
734.493	570.753
734.621	576.680
734.749	566.639
734.877	565.608
735.005	563.804
735.133	569.907
735.262	564.794
735.390	559.052
735.518	553.959
735.646	560.041
735.774	546.784
735.902	553.278
736.030	550.196
736.158	554.041
736.287	546.206
736.415	549.330
736.543	545.588
736.671	545.711
736.799	544.825
736.927	541.299
737.055	535.588
737.183	533.124
737.312	531.175
737.440	526.701
737.568	529.773
737.696	533.804
737.824	525.979
737.952	552.979
738.080	519.330
738.208	518.237
738.337	517.567
738.465	517.113
738.593	516.711
738.721	514.041
738.849	509.381
738.977	510.969
739.105	505.732
739.233	504.619
739.362	505.289
739.490	501.186
739.618	502.072
739.746	498.526
739.874	499.959
740.002	504.381
740.130	487.948
740.258	490.443
740.387	488.196
740.515	500.237
740.643	487.691
740.771	490.598
740.899	480.103
741.027	483.371
741.155	482.639
741.283	480.691
741.412	477.113
741.540	477.680
741.668	475.629
741.796	474.948
741.924	469.825
742.052	471.082
742.180	467.536
742.308	461.732
742.437	464.866
742.565	465.082
742.693	462.093
742.821	462.155
742.949	453.505
743.077	457.866
743.205	453.732
743.333	450.897
743.462	449.474
743.590	445.804
743.718	440.825
743.846	447.268
743.974	444.845
744.102	438.103
744.230	443.062
744.358	437.773
744.487	437.237
744.615	432.041
744.743	432.031
744.871	432.320
744.999	427.371
745.127	429.041
745.255	422.928
745.383	426.876
745.512	422.464
745.640	430.443
745.768	418.794
745.896	420.423
746.024	415.959
746.152	421.113
746.280	420.351
746.408	415.155
746.537	412.536
746.665	413.062
746.793	414.196
746.921	410.423
747.049	413.186
747.177	403.804
747.305	408.784
747.433	403.175
747.562	400.660
747.690	405.546
747.818	395.021
747.946	403.021
748.074	401.175
748.202	394.278
748.330	391.856
748.458	388.082
748.587	394.021
748.715	392.041
748.843	393.608
748.971	386.856
749.099	393.918
749.227	388.433
749.355	387.031
749.483	376.278
749.612	384.021
749.740	377.433
749.868	380.876
749.996	379.278
750.124	378.577
750.252	379.701
750.380	376.392
750.508	378.134
750.637	370.876
750.765	375.423
750.893	374.526
751.021	379.072
751.149	369.165
751.277	369.474
751.405	366.918
751.533	370.918
751.662	363.979
751.790	364.794
751.918	358.588
752.046	362.536
752.174	361.206
752.302	358.361
752.430	361.062
752.558	357.340
752.687	354.938
752.815	357.866
752.943	350.763
753.071	350.794
753.199	351.835
753.327	351.227
753.455	344.835
753.583	348.876
753.712	343.000
753.840	338.763
753.968	342.113
754.096	344.155
754.224	343.010
754.352	341.320
754.480	340.536
754.608	335.577
754.737	333.670
754.865	337.526
754.993	331.845
755.121	334.670
755.249	329.072
755.377	325.072
755.505	329.134
755.633	326.144
755.762	322.258
755.890	322.907
756.018	320.557
756.146	319.072
756.274	320.052
756.402	317.062
756.530	318.227
756.658	314.340
756.787	314.237
756.915	311.433
757.043	308.918
757.171	312.526
757.299	314.113
757.427	306.216
757.555	310.010
757.683	308.608
757.812	310.402
757.940	306.093
758.068	306.144
758.196	299.330
758.324	302.186
758.452	297.732
758.580	298.010
758.708	299.258
758.837	296.784
758.965	300.742
759.093	297.392
759.221	291.753
759.349	291.371
759.477	292.278
759.605	288.639
759.733	291.742
759.862	289.309
759.990	284.371
760.118	281.577
760.246	289.000
760.374	287.856
760.502	281.299
760.630	286.979
760.758	278.969
760.887	276.268
761.015	283.773
761.143	277.907
761.271	276.412
761.399	275.505
761.527	276.546
761.655	275.845
761.783	271.268
761.912	268.619
762.040	272.351
762.168	267.804
762.296	267.845
762.424	268.608
762.552	264.299
762.680	265.155
762.808	262.814
762.937	265.361
763.065	260.216
763.193	260.175
763.321	258.309
763.449	259.093
763.577	251.866
763.705	259.546
763.833	257.340
763.962	252.320
764.090	251.289
764.218	251.907
764.346	250.526
764.474	255.072
764.602	246.299
764.730	252.124
764.858	249.196
764.987	250.979
765.115	242.196
765.243	246.258
765.371	245.247
765.499	238.567
765.627	244.485
765.755	247.825
765.883	246.856
766.012	245.381
766.140	239.082
766.268	242.990
766.396	240.454
766.524	237.969
766.652	237.557
766.780	232.577
766.908	236.113
767.037	235.763
767.165	236.402
767.293	242.309
767.421	236.433
767.549	231.278
767.677	235.423
767.805	230.196
767.933	231.938
768.062	229.608
768.190	231.062
768.318	231.196
768.446	230.124
768.574	228.072
768.702	225.031
768.830	228.155
768.958	227.330
769.087	229.649
769.215	226.866
769.343	225.763
769.471	227.021
769.599	224.361
769.727	225.299
769.855	222.124
769.983	229.753
770.112	221.526
770.240	219.794
770.368	221.701
770.496	220.155
770.624	223.598
770.752	220.289
770.880	222.907
771.008	220.278
771.137	215.845
771.265	217.052
771.393	217.536
771.521	218.144
771.649	218.227
771.777	218.897
771.905	217.072
772.033	222.000
772.162	216.876
772.290	214.505
772.418	215.918
772.546	211.309
772.674	216.443
772.802	214.979
772.930	215.505
773.058	215.361
773.187	214.546
773.315	210.485
773.443	209.557
773.571	214.206
773.699	209.773
773.827	208.072
773.955	214.649
774.083	208.351
774.212	209.134
774.340	210.165
774.468	212.845
774.596	204.052
774.724	207.959
774.852	209.660
774.980	211.588
775.108	207.000
775.237	206.433
775.365	208.794
775.493	205.619
775.621	204.711
775.749	205.866
775.877	206.031
776.005	205.165
776.133	200.041
776.262	205.124
776.390	203.010
776.518	205.526
776.646	202.340
776.774	200.711
776.902	201.330
777.030	200.773
777.158	200.196
777.287	203.598
777.415	198.918
777.543	203.041
777.671	200.866
777.799	197.825
777.927	199.557
778.055	197.340
778.183	195.392
778.312	198.103
778.440	196.753
778.568	198.237
778.696	199.134
778.824	198.701
778.952	195.093
779.080	192.526
779.208	196.392
779.337	197.216
779.465	197.897
779.593	193.918
779.721	192.577
779.849	194.309
779.977	195.526
780.105	194.639
780.233	193.196
780.362	192.691
780.490	189.825
780.618	194.227
780.746	189.021
780.874	190.557
781.002	188.103
781.130	192.175
781.258	191.887
781.387	187.784
781.515	187.485
781.643	188.835
781.771	188.670
781.899	187.588
782.027	184.412
782.155	188.392
782.283	187.186
782.412	184.495
782.540	188.320
782.668	185.845
782.796	184.062
782.924	185.887
783.052	183.897
783.180	185.206
783.308	182.495
783.437	184.237
783.565	181.990
783.693	181.351
783.821	183.402
783.949	184.464
784.077	180.186
784.205	180.598
784.333	183.825
784.462	183.330
784.590	178.680
784.718	180.629
784.846	181.485
784.974	184.402
785.102	177.320
785.230	177.598
785.358	177.784
785.487	179.031
785.615	175.557
785.743	176.485
785.871	177.804
785.999	178.649
786.127	180.361
786.255	176.536
786.383	174.216
786.512	176.742
786.640	173.814
786.768	176.515
786.896	174.000
787.024	173.227
787.152	174.619
787.280	177.433
787.408	178.186
787.537	175.670
787.665	174.144
787.793	175.381
787.921	174.619
788.049	172.216
788.177	175.103
788.305	169.392
788.433	172.794
788.562	168.608
788.690	173.577
788.818	171.082
788.946	170.701
789.074	169.330
789.202	171.371
789.330	171.031
789.458	172.278
789.587	171.412
789.715	169.567
789.843	168.918
789.971	168.959
790.099	172.309
790.227	169.041
790.355	169.330
790.483	167.258
790.612	165.959
790.740	167.722
790.868	167.268
790.996	168.134
791.124	169.691
791.252	165.969
791.380	167.381
791.508	165.928
791.637	167.330
791.765	164.103
791.893	162.979
792.021	165.691
792.149	165.433
792.277	164.289
792.405	166.072
792.533	164.381
792.662	164.062
792.790	165.144
792.918	166.711
793.046	163.340
793.174	163.629
793.302	161.649
793.430	163.021
793.558	161.433
793.687	162.000
793.815	161.784
793.943	161.897
794.071	156.124
794.199	161.330
794.327	161.392
794.455	159.722
794.583	164.175
794.712	159.732
794.840	156.835
794.968	157.567
795.096	157.495
795.224	156.340
795.352	159.433
795.480	157.763
795.608	158.010
795.737	155.670
795.865	156.691
795.993	157.093
796.121	158.381
796.249	159.124
796.377	157.680
796.505	155.289
796.633	153.928
796.762	153.165
796.890	154.691
797.018	154.010
797.146	156.423
797.274	153.948
797.402	153.402
797.530	153.773
797.658	152.258
797.787	153.876
797.915	154.227
798.043	154.041
798.171	152.608
798.299	151.381
798.427	152.485
798.555	149.845
798.683	150.629
798.812	150.536
798.940	149.711
799.068	150.639
799.196	150.825
799.324	150.124
799.452	149.619
799.580	148.237
799.708	147.948
799.837	147.794
799.965	148.990
800.093	149.577
800.221	151.464
800.349	149.351
800.477	145.784
800.605	144.814
800.733	144.361
800.862	147.000
800.990	147.371
801.118	145.227
801.246	147.464
801.374	148.814
801.502	143.289
801.630	147.918
801.758	147.000
801.887	146.505
802.015	143.814
802.143	144.175
802.271	143.546
802.399	145.299
802.527	142.990
802.655	143.763
802.783	142.144
802.912	143.124
803.040	140.794
803.168	141.794
803.296	148.278
803.424	140.918
803.552	140.381
803.680	139.835
803.808	142.784
803.937	140.948
804.065	139.856
804.193	140.557
804.321	141.464
804.449	144.289
804.577	141.103
804.705	142.165
804.833	141.433
804.962	141.392
805.090	142.010
805.218	144.351
805.346	140.299
805.474	141.186
805.602	139.732
805.730	139.670
805.858	138.742
805.987	137.722
806.115	140.175
806.243	140.381
806.371	136.495
806.499	138.495
806.627	137.557
806.755	136.557
806.883	138.639
807.012	137.258
807.140	137.278
807.268	134.773
807.396	137.351
807.524	136.835
807.652	139.495
807.780	137.474
807.908	136.454
808.037	139.134
808.165	135.227
808.293	136.536
808.421	134.340
808.549	135.412
808.677	136.031
808.805	140.278
808.933	135.144
809.062	135.454
809.190	134.866
809.318	135.629
809.446	133.825
809.574	133.691
809.702	135.155
809.830	132.598
809.958	132.495
810.087	136.443
810.215	134.021
810.343	136.052
810.471	134.392
810.599	131.412
810.727	138.948
810.855	134.443
810.983	132.928
811.112	135.227
811.240	134.021
811.368	131.392
811.496	134.608
811.624	133.443
811.752	133.546
811.880	134.196
812.008	133.866
812.137	135.515
812.265	134.773
812.393	133.897
812.521	132.031
812.649	130.887
812.777	131.577
812.905	132.186
813.033	131.495
813.162	130.330
813.290	131.237
813.418	131.062
813.546	130.010
813.674	131.093
813.802	129.000
813.930	130.443
814.058	130.598
814.187	131.649
814.315	130.639
814.443	130.474
814.571	131.464
814.699	129.052
814.827	129.691
814.955	130.103
815.083	127.093
815.212	129.948
815.340	127.392
815.468	129.990
815.596	129.897
815.724	132.186
815.852	130.701
815.980	129.381
816.108	127.031
816.237	127.814
816.365	130.268
816.493	129.536
816.621	127.629
816.749	128.619
816.877	134.443
817.005	128.639
817.133	129.443
817.262	129.804
817.390	128.113
817.518	129.186
817.646	125.753
817.774	126.495
817.902	127.742
818.030	125.814
818.158	126.454
818.287	123.969
818.415	126.959
818.543	128.649
818.671	127.495
818.799	125.691
818.927	125.526
819.055	125.670
819.183	128.866
819.312	126.753
819.440	124.959
819.568	126.433
819.696	127.268
819.824	126.464
819.952	124.711
820.080	126.433
820.208	124.619
820.337	126.093
820.465	123.784
820.593	124.474
820.721	127.134
820.849	122.907
820.977	127.041
821.105	127.175
821.233	123.732
821.362	126.010
821.490	124.814
821.618	124.773
821.746	124.031
821.874	122.536
822.002	122.959
822.130	127.433
822.258	122.979
822.387	120.041
822.515	122.732
822.643	123.763
822.771	122.155
822.899	121.206
823.027	120.546
823.155	124.237
823.283	122.330
823.412	120.557
823.540	122.155
823.668	124.031
823.796	121.268
823.924	121.206
824.052	120.649
824.180	120.577
824.308	122.247
824.437	122.887
824.565	123.124
824.693	119.773
824.821	121.299
824.949	122.268
825.077	123.433
825.205	120.443
825.333	120.454
825.462	120.454
825.590	122.526
825.718	119.196
825.846	122.227
825.974	120.649
826.102	121.062
826.230	119.629
826.358	121.206
826.487	121.072
826.615	120.082
826.743	119.320
826.871	120.402
826.999	121.144
827.127	122.206
827.255	120.629
827.383	121.660
827.512	119.289
827.640	122.979
827.768	119.876
827.896	118.423
828.024	119.825
828.152	119.969
828.280	119.598
828.408	121.258
828.537	121.237
828.665	118.753
828.793	119.381
828.921	118.732
829.049	119.536
829.177	118.691
829.305	120.598
829.433	117.268
829.562	117.289
829.690	118.041
829.818	117.546
829.946	119.072
830.074	117.959
830.202	117.856
830.330	116.412
830.458	116.959
830.587	119.186
830.715	117.845
830.843	117.588
830.971	118.505
831.099	117.412
831.227	116.887
831.355	118.124
831.483	120.134
831.612	116.887
831.740	116.485
831.868	119.031
831.996	115.918
832.124	117.082
832.252	116.227
832.380	117.371
832.508	118.845
832.637	117.144
832.765	119.289
832.893	120.443
833.021	116.866
833.149	117.330
833.277	117.361
833.405	119.320
833.533	116.258
833.662	117.412
833.790	116.031
833.918	118.134
834.046	116.897
834.174	117.784
834.302	117.948
834.430	115.567
834.558	115.928
834.687	116.454
834.815	115.392
834.943	114.680
835.071	117.144
835.199	116.588
835.327	115.474
835.455	114.546
835.583	117.299
835.712	117.165
835.840	116.309
835.968	115.907
836.096	116.175
836.224	115.464
836.352	116.423
836.480	116.134
836.608	113.794
836.737	115.969
836.865	115.093
836.993	117.237
837.121	116.392
837.249	116.144
837.377	114.309
837.505	112.990
837.633	116.526
837.762	114.732
837.890	114.588
838.018	112.639
838.146	112.928
838.274	114.423
838.402	114.639
838.530	115.588
838.658	113.299
838.787	113.969
838.915	112.959
839.043	115.660
839.171	114.258
839.299	113.144
839.427	115.082
839.555	115.175
839.683	114.186
839.812	117.412
839.940	114.433
840.068	114.804
840.196	113.979
840.324	113.247
840.452	112.474
840.580	112.155
840.708	114.134
840.837	113.577
840.965	114.289
841.093	112.526
841.221	112.495
841.349	114.103
841.477	115.247
841.605	113.639
841.733	112.918
841.862	113.897
841.990	112.722
842.118	113.887
842.246	115.052
842.374	113.794
842.502	113.948
842.630	111.577
842.758	110.711
842.887	112.907
843.015	114.443
843.143	112.031
843.271	113.392
843.399	113.526
843.527	114.660
843.655	111.948
843.783	111.711
843.912	110.515
844.040	111.361
844.168	113.845
844.296	115.361
844.424	111.990
844.552	113.825
844.680	114.031
844.808	110.866
844.937	110.629
845.065	112.474
845.193	111.990
845.321	111.722
845.449	112.876
845.577	112.845
845.705	111.804
845.833	112.454
845.962	114.515
846.090	112.237
846.218	111.938
846.346	111.485
846.474	111.247
846.602	112.515
846.730	111.165
846.858	109.175
846.987	109.041
847.115	112.814
847.243	110.763
847.371	111.804
847.499	111.247
847.627	111.330
847.755	112.515
847.883	111.577
848.012	110.320
848.140	109.588
848.268	111.258
848.396	111.701
848.524	113.351
848.652	110.753
848.780	108.825
848.908	111.268
849.037	110.856
849.165	108.866
849.293	110.165
849.421	111.794
849.549	109.175
849.677	111.093
849.805	112.144
849.933	110.918
850.062	111.247
850.190	110.278
850.318	110.701
850.446	111.835
850.574	111.887
850.702	110.948
850.830	110.969
850.958	110.784
851.087	112.010
851.215	109.825
851.343	110.289
851.471	110.423
851.599	111.763
851.727	110.722
851.855	110.021
851.983	109.897
852.112	110.237
852.240	111.103
852.368	109.412
852.496	109.216
852.624	110.577
852.752	110.041
852.880	110.155
853.008	109.876
853.137	109.866
853.265	107.361
853.393	109.619
853.521	108.031
853.649	110.278
853.777	110.557
853.905	109.144
854.033	108.443
854.162	110.186
854.290	108.876
854.418	108.433
854.546	108.423
854.674	108.485
854.802	109.021
854.930	108.887
855.058	109.134
855.187	111.299
855.315	110.979
855.443	109.443
855.571	108.814
855.699	109.216
855.827	107.041
855.955	108.887
856.083	109.299
856.212	107.887
856.340	109.196
856.468	109.701
856.596	110.000
856.724	108.990
856.852	108.216
856.980	108.505
857.108	106.794
857.237	106.742
857.365	108.052
857.493	109.320
857.621	107.546
857.749	107.577
857.877	109.351
858.005	109.505
858.133	106.237
858.262	106.856
858.390	108.155
858.518	108.670
858.646	110.052
858.774	107.701
858.902	107.433
859.030	110.309
859.158	109.928
859.287	108.454
859.415	106.938
859.543	107.464
859.671	108.330
859.799	107.742
859.927	107.629
860.055	108.010
860.183	108.010
860.312	108.990
860.440	107.175
860.568	107.423
860.696	107.113
860.824	109.072
860.952	108.443
861.080	106.887
861.208	107.938
861.337	106.722
861.465	108.577
861.593	108.918
861.721	108.732
861.849	107.423
861.977	106.753
862.105	107.021
862.233	109.804
862.362	107.608
862.490	107.041
862.618	108.082
862.746	107.412
862.874	107.866
863.002	109.155
863.130	108.206
863.258	109.082
863.387	108.969
863.515	107.928
863.643	107.010
863.771	107.876
863.899	108.742
864.027	109.165
864.155	107.258
864.283	107.268
864.412	107.144
864.540	108.278
864.668	107.897
864.796	107.742
864.924	107.608
865.052	107.361
865.180	110.196
865.308	107.567
865.437	108.948
865.565	107.247
865.693	106.536
865.821	107.784
865.949	107.711
866.077	108.082
866.205	109.010
866.333	109.247
866.462	106.155
866.590	107.619
866.718	107.619
866.846	108.526
866.974	109.165
867.102	106.577
867.230	109.670
867.358	106.732
867.487	106.577
867.615	107.454
867.743	106.969
867.871	108.010
867.999	106.907
868.127	107.495
868.255	107.206
868.383	106.464
868.512	108.309
868.640	106.227
868.768	107.237
868.896	107.216
869.024	106.546
869.152	107.216
869.280	105.835
869.408	107.175
869.537	107.320
869.665	107.546
869.793	107.557
869.921	105.619
870.049	108.165
870.177	108.340
870.305	106.959
870.433	106.381
870.562	106.113
870.690	105.031
870.818	108.072
870.946	107.165
871.074	106.639
871.202	106.825
871.330	106.031
871.458	106.330
871.587	105.742
871.715	106.443
871.843	106.835
871.971	107.309
872.099	104.742
872.227	106.856
872.355	106.732
872.483	106.299
872.612	105.443
872.740	105.505
872.868	106.134
872.996	104.753
873.124	104.320
873.252	106.969
873.380	106.567
873.508	105.876
873.637	107.557
873.765	106.814
873.893	105.186
874.021	105.979
874.149	106.433
874.277	106.979
874.405	106.608
874.533	104.649
874.662	106.588
874.790	105.289
874.918	105.206
875.046	105.134
875.174	104.093
875.302	105.474
875.430	106.567
875.558	105.186
875.687	105.619
875.815	107.845
875.943	106.237
876.071	108.299
876.199	106.526
876.327	105.856
876.455	106.330
876.583	106.021
876.712	104.670
876.840	105.402
876.968	106.536
877.096	104.361
877.224	104.515
877.352	105.072
877.480	106.381
877.608	105.990
877.737	106.505
877.865	106.454
877.993	105.144
878.121	104.515
878.249	104.701
878.377	106.794
878.505	105.536
878.633	106.227
878.762	106.753
878.890	105.505
879.018	105.907
879.146	106.309
879.274	106.732
879.402	105.928
879.530	104.505
879.658	104.588
879.787	105.680
879.915	106.969
880.043	106.000
880.171	105.464
880.299	105.299
880.427	104.330
880.555	104.268
880.683	106.557
880.812	106.237
880.940	106.144
881.068	105.649
881.196	105.196
881.324	106.464
881.452	106.216
881.580	106.588
881.708	105.268
881.837	104.773
881.965	104.113
882.093	105.196
882.221	105.247
882.349	105.082
882.477	106.887
882.605	105.990
882.733	104.124
882.862	105.691
882.990	106.845
883.118	105.515
883.246	105.711
883.374	105.876
883.502	105.010
883.630	105.237
883.758	105.196
883.887	105.670
884.015	105.216
884.143	105.928
884.271	104.856
884.399	104.093
884.527	104.670
884.655	105.856
884.783	105.845
884.912	105.309
885.040	105.918
885.168	105.175
885.296	104.804
885.424	105.206
885.552	105.897
885.680	105.093
885.808	103.959
885.937	105.227
886.065	104.588
886.193	104.392
886.321	105.485
886.449	105.371
886.577	105.155
886.705	105.113
886.833	104.381
886.962	106.093
887.090	104.216
887.218	104.103
887.346	104.732
887.474	104.835
887.602	104.361
887.730	105.629
887.858	104.928
887.987	104.959
888.115	104.918
888.243	106.567
888.371	105.206
888.499	104.660
888.627	105.052
888.755	104.742
888.883	104.959
889.012	105.464
889.140	105.206
889.268	103.093
889.396	105.268
889.524	103.856
889.652	105.701
889.780	105.206
889.908	103.526
890.037	103.763
890.165	102.887
890.293	103.103
890.421	104.000
890.549	104.423
890.677	103.299
890.805	103.814
890.933	104.454
891.062	103.351
891.190	103.959
891.318	105.495
891.446	104.608
891.574	104.320
891.702	102.918
891.830	103.835
891.958	105.258
892.087	103.753
892.215	103.454
892.343	104.639
892.471	103.773
892.599	104.979
892.727	103.670
892.855	105.021
892.983	103.237
893.112	105.072
893.240	104.103
893.368	103.959
893.496	105.443
893.624	104.691
893.752	104.722
893.880	103.722
894.008	103.753
894.137	104.031
894.265	104.629
894.393	104.443
894.521	103.928
894.649	103.485
894.777	103.340
894.905	103.948
895.033	106.062
895.162	106.392
895.290	105.082
895.418	105.515
895.546	104.515
895.674	104.835
895.802	104.670
895.930	105.196
896.058	104.567
896.187	104.196
896.315	104.680
896.443	105.021
896.571	104.619
896.699	105.000
896.827	103.454
896.955	104.021
897.083	104.052
897.212	105.794
897.340	103.031
897.468	103.010
897.596	104.742
897.724	102.784
897.852	103.907
897.980	102.825
898.108	102.959
898.237	103.928
898.365	105.103
898.493	104.175
898.621	103.371
898.749	104.309
898.877	103.144
899.005	103.938
899.133	105.155
899.262	105.247
899.390	103.351
899.518	103.474
899.646	103.639
899.774	104.371
899.902	102.608
900.030	105.670
900.158	104.577
900.287	103.237
900.415	103.464
900.543	103.557
900.671	105.340
900.799	101.825
900.927	104.320
901.055	103.557
901.183	103.670
901.312	103.969
901.440	102.381
901.568	103.495
901.696	104.361
901.824	104.299
901.952	104.289
902.080	104.258
902.208	104.113
902.337	103.258
902.465	103.670
902.593	104.845
902.721	103.093
902.849	103.515
902.977	103.454
903.105	104.948
903.233	102.526
903.362	103.866
903.490	104.010
903.618	101.784
903.746	103.371
903.874	103.402
904.002	105.299
904.130	105.186
904.258	105.546
904.387	104.753
904.515	104.351
904.643	103.701
904.771	103.340
904.899	103.814
905.027	104.577
905.155	102.928
905.283	102.423
905.412	103.990
905.540	103.639
905.668	104.433
905.796	103.948
905.924	103.392
906.052	104.227
906.180	104.000
906.308	104.052
906.437	102.474
906.565	105.649
906.693	103.474
906.821	103.649
906.949	103.588
907.077	102.825
907.205	101.660
907.333	101.165
907.462	104.330
907.590	103.412
907.718	103.784
907.846	102.897
907.974	102.990
908.102	103.928
908.230	101.763
908.358	102.835
908.487	102.598
908.615	102.588
908.743	102.959
908.871	103.711
908.999	102.103
909.127	101.938
909.255	103.814
909.383	103.505
909.512	103.062
909.640	103.763
909.768	102.753
909.896	103.247
910.024	104.639
910.152	104.784
910.280	103.371
910.408	102.866
910.537	103.732
910.665	102.722
910.793	102.629
910.921	101.784
911.049	101.784
911.177	102.371
911.305	103.340
911.433	104.165
911.562	104.124
911.690	104.907
911.818	103.732
911.946	103.072
912.074	103.938
912.202	102.485
912.330	103.485
912.458	102.526
912.587	101.732
912.715	102.742
912.843	104.619
912.971	105.588
913.099	103.866
913.227	104.567
913.355	103.969
913.483	102.454
913.612	103.278
913.740	104.062
913.868	103.381
