0pol_90_90_at_750.00nm_cut_at_984.50Y_01.dat
24.04.2023
10:49:24
cut middle at Y: 984.50
top cursor: 1008 down cursor: 961 mean of: 47 lines , 2560 datapoints
wavelength(nm)	intensity[arb. units]
585.996	12352.574
586.124	12087.404
586.252	11976.979
586.380	12072.021
586.508	12105.213
586.637	12200.681
586.765	12237.660
586.893	12306.170
587.021	12324.149
587.149	12392.128
587.277	12380.723
587.405	12466.213
587.533	12389.277
587.662	12565.106
587.790	12562.936
587.918	12399.681
588.046	12502.234
588.174	12472.043
588.302	12551.064
588.430	12506.745
588.558	12466.468
588.687	12510.745
588.815	12495.915
588.943	12544.149
589.071	12514.000
589.199	12582.872
589.327	12541.170
589.455	12502.681
589.583	12669.638
589.712	12582.106
589.840	12567.213
589.968	12600.000
590.096	12610.043
590.224	12630.553
590.352	12677.489
590.480	12679.809
590.608	12675.426
590.737	12763.702
590.865	12816.362
590.993	12731.191
591.121	12802.553
591.249	12762.170
591.377	12767.021
591.505	12792.085
591.633	12862.170
591.762	12826.085
591.890	13035.170
592.018	12838.489
592.146	12880.362
592.274	12931.404
592.402	12916.702
592.530	12921.468
592.658	13224.319
592.787	12974.872
592.915	13184.745
593.043	13086.872
593.171	13129.574
593.299	13185.957
593.427	13197.468
593.555	13246.277
593.683	13294.936
593.812	13334.894
593.940	13333.638
594.068	13424.702
594.196	13460.447
594.324	13531.149
594.452	13517.809
594.580	13535.064
594.708	13637.723
594.837	13590.574
594.965	13690.957
595.093	13728.447
595.221	13762.936
595.349	13896.638
595.477	13789.383
595.605	13835.021
595.733	13804.319
595.862	14092.404
595.990	13935.660
596.118	13967.574
596.246	14143.085
596.374	14049.830
596.502	14097.553
596.630	14087.170
596.758	14094.043
596.887	14085.255
597.015	14198.596
597.143	14206.106
597.271	14222.043
597.399	14221.596
597.527	14126.170
597.655	14205.170
597.783	14250.213
597.912	14245.702
598.040	14277.128
598.168	14355.170
598.296	14267.787
598.424	14298.043
598.552	14329.660
598.680	14256.000
598.808	14420.085
598.937	14300.426
599.065	14289.489
599.193	14409.213
599.321	14375.021
599.449	14329.638
599.577	14279.723
599.705	14419.894
599.833	14352.766
599.962	14376.106
600.090	14461.043
600.218	14484.872
600.346	14551.383
600.474	14505.255
600.602	14526.787
600.730	14551.787
600.858	14655.255
600.987	14828.489
601.115	14711.000
601.243	14790.085
601.371	14776.894
601.499	14867.085
601.627	15010.234
601.755	14942.277
601.883	15019.234
602.012	15088.085
602.140	15114.383
602.268	15242.468
602.396	15268.809
602.524	15369.468
602.652	15314.191
602.780	15413.319
602.908	15512.872
603.037	15599.553
603.165	15543.000
603.293	15647.617
603.421	15632.638
603.549	15768.872
603.677	15880.936
603.805	15919.383
603.933	15997.191
604.062	16097.191
604.190	16087.489
604.318	16208.809
604.446	16179.383
604.574	16278.128
604.702	16345.340
604.830	16355.617
604.958	16472.383
605.087	16484.532
605.215	16564.489
605.343	16616.894
605.471	16653.000
605.599	16745.234
605.727	16756.915
605.855	16809.234
605.983	16879.872
606.112	16927.468
606.240	16973.362
606.368	16976.957
606.496	17209.298
606.624	17034.681
606.752	17158.872
606.880	17274.489
607.008	17401.723
607.137	17305.660
607.265	17161.383
607.393	17276.191
607.521	17388.596
607.649	17385.915
607.777	17289.596
607.905	17353.106
608.033	17367.064
608.162	17377.170
608.290	17432.128
608.418	17386.149
608.546	17488.277
608.674	17426.766
608.802	17445.319
608.930	17542.532
609.058	17566.872
609.187	17671.319
609.315	17643.000
609.443	17676.277
609.571	17713.447
609.699	17676.404
609.827	17743.617
609.955	17726.979
610.083	17732.468
610.212	17756.553
610.340	17729.660
610.468	17834.957
610.596	17887.277
610.724	17922.723
610.852	17869.574
610.980	17972.702
611.108	18033.915
611.237	17950.723
611.365	18021.319
611.493	18013.489
611.621	18145.404
611.749	18224.383
611.877	18268.447
612.005	18268.277
612.133	18305.149
612.262	18385.894
612.390	18462.319
612.518	18497.979
612.646	18592.277
612.774	18606.617
612.902	18657.255
613.030	18813.340
613.158	18939.404
613.287	18913.681
613.415	18915.574
613.543	18920.660
613.671	18946.340
613.799	19114.085
613.927	18986.170
614.055	19090.532
614.183	19280.106
614.312	19206.638
614.440	19422.340
614.568	19380.617
614.696	19436.915
614.824	19643.362
614.952	19578.362
615.080	19651.255
615.208	19769.851
615.337	19871.383
615.465	19968.745
615.593	20147.660
615.721	20300.553
615.849	20331.745
615.977	20421.702
616.105	20508.936
616.233	20456.745
616.362	20556.404
616.490	20549.191
616.618	20652.404
616.746	20844.085
616.874	20803.170
617.002	20791.106
617.130	20925.511
617.258	21084.106
617.387	21030.277
617.515	21054.021
617.643	21086.787
617.771	21140.106
617.899	21226.191
618.027	21297.979
618.155	21409.596
618.283	21371.979
618.412	21508.383
618.540	21555.191
618.668	21581.532
618.796	21629.128
618.924	21827.000
619.052	21753.511
619.180	21793.064
619.308	21881.000
619.437	21912.128
619.565	22011.809
619.693	21980.830
619.821	21990.426
619.949	22107.319
620.077	22137.277
620.205	22241.064
620.333	22288.191
620.462	22425.574
620.590	22426.191
620.718	22458.532
620.846	22520.936
620.974	22505.766
621.102	22578.234
621.230	22610.596
621.358	22777.468
621.487	22661.936
621.615	22799.511
621.743	22847.468
621.871	22886.532
621.999	22963.830
622.127	22892.809
622.255	23052.191
622.383	23068.851
622.512	23082.000
622.640	23281.043
622.768	23173.191
622.896	23257.553
623.024	23347.957
623.152	23499.553
623.280	23474.213
623.408	23436.085
623.537	23475.043
623.665	23540.277
623.793	23611.766
623.921	23574.468
624.049	23638.532
624.177	23723.766
624.305	23780.660
624.433	23845.830
624.562	23994.617
624.690	23921.553
624.818	24056.128
624.946	24212.489
625.074	24093.319
625.202	24162.319
625.330	24177.149
625.458	24280.617
625.587	24298.170
625.715	24348.043
625.843	24545.234
625.971	24615.489
626.099	24543.809
626.227	24735.340
626.355	24688.511
626.483	24853.149
626.612	24793.043
626.740	24933.553
626.868	25041.191
626.996	25027.319
627.124	25182.000
627.252	25132.574
627.380	25330.043
627.508	25407.404
627.637	25367.170
627.765	25553.000
627.893	25685.426
628.021	25769.319
628.149	26006.936
628.277	26127.191
628.405	26247.362
628.533	26078.191
628.662	26130.319
628.790	26240.745
628.918	26271.277
629.046	26368.745
629.174	26611.851
629.302	26955.872
629.430	26851.128
629.558	26855.915
629.687	26876.128
629.815	27023.532
629.943	27108.660
630.071	27164.447
630.199	27294.085
630.327	27360.745
630.455	27470.213
630.583	27685.766
630.712	27660.298
630.840	27827.511
630.968	27908.638
631.096	27987.319
631.224	28170.894
631.352	28192.234
631.480	28270.553
631.608	28425.766
631.737	28578.809
631.865	28691.511
631.993	28618.702
632.121	28865.809
632.249	28861.489
632.377	28910.277
632.505	28987.553
632.633	28931.851
632.762	29058.489
632.890	29250.170
633.018	29159.404
633.146	29437.532
633.274	29310.851
633.402	29438.404
633.530	29518.298
633.658	29699.106
633.787	29718.766
633.915	29704.660
634.043	29643.936
634.171	29816.128
634.299	29848.809
634.427	29941.936
634.555	29983.723
634.683	30015.851
634.812	30104.553
634.940	30092.404
635.068	30160.809
635.196	30220.957
635.324	30298.489
635.452	30340.021
635.580	30324.468
635.708	30374.745
635.837	30427.000
635.965	30361.000
636.093	30459.532
636.221	30558.170
636.349	30647.021
636.477	30669.660
636.605	30784.191
636.733	30693.191
636.862	30670.277
636.990	30832.489
637.118	30806.894
637.246	30858.553
637.374	30941.574
637.502	30999.660
637.630	30945.468
637.758	30970.489
637.887	31169.702
638.015	31098.191
638.143	31244.830
638.271	31268.277
638.399	31291.830
638.527	31366.489
638.655	31390.426
638.783	31614.085
638.912	31533.894
639.040	31643.766
639.168	31719.617
639.296	31752.809
639.424	31968.723
639.552	31908.362
639.680	32138.362
639.808	32052.213
639.937	32197.170
640.065	32256.340
640.193	32408.936
640.321	32381.340
640.449	32478.681
640.577	32684.128
640.705	32704.128
640.833	32877.170
640.962	32826.596
641.090	32916.043
641.218	33065.362
641.346	33237.979
641.474	33307.660
641.602	33397.638
641.730	33395.170
641.858	33552.936
641.987	33714.745
642.115	33750.957
642.243	33905.660
642.371	33934.106
642.499	34227.766
642.627	34248.043
642.755	34407.149
642.883	34472.468
643.012	34546.574
643.140	34694.851
643.268	34772.894
643.396	34905.191
643.524	35081.277
643.652	35100.191
643.780	35094.617
643.908	35339.596
644.037	35431.915
644.165	35484.511
644.293	35553.894
644.421	35680.936
644.549	35766.149
644.677	35862.255
644.805	35950.809
644.933	35989.000
645.062	36159.383
645.190	36166.957
645.318	36382.149
645.446	36301.723
645.574	36412.532
645.702	36519.362
645.830	36777.383
645.958	36611.851
646.087	36974.766
646.215	36734.957
646.343	37042.000
646.471	36881.936
646.599	37062.511
646.727	36996.255
646.855	37127.149
646.983	37254.489
647.112	37186.851
647.240	37399.340
647.368	37315.383
647.496	37409.574
647.624	37396.426
647.752	37495.638
647.880	37554.957
648.008	37519.872
648.137	37666.745
648.265	37670.128
648.393	37664.894
648.521	37867.170
648.649	37815.745
648.777	37910.404
648.905	37844.319
649.033	37863.383
649.162	37903.298
649.290	38018.468
649.418	37874.426
649.546	38079.362
649.674	38125.362
649.802	38110.617
649.930	38400.511
650.058	38195.085
650.187	38148.064
650.315	38288.149
650.443	38351.170
650.571	38389.383
650.699	38388.298
650.827	38439.872
650.955	38473.277
651.083	38508.362
651.212	38646.681
651.340	38600.596
651.468	38676.830
651.596	38691.574
651.724	38755.191
651.852	38751.170
651.980	38764.277
652.108	38905.340
652.237	38940.957
652.365	39000.043
652.493	38957.830
652.621	39001.489
652.749	39161.766
652.877	39096.468
653.005	39186.021
653.133	39232.085
653.262	39261.936
653.390	39273.894
653.518	39341.213
653.646	39443.213
653.774	39461.872
653.902	39400.723
654.030	39582.213
654.158	39460.234
654.287	39661.511
654.415	39576.489
654.543	39749.851
654.671	39671.064
654.799	39847.426
654.927	39745.404
655.055	39726.149
655.183	39799.298
655.312	39806.064
655.440	39903.106
655.568	39878.340
655.696	39878.340
655.824	40043.638
655.952	40012.745
656.080	40003.787
656.208	40155.085
656.337	40041.234
656.465	40172.319
656.593	40183.830
656.721	40024.681
656.849	40105.255
656.977	40096.340
657.105	40106.191
657.233	40077.596
657.362	40155.745
657.490	40114.574
657.618	40151.255
657.746	40237.766
657.874	40205.894
658.002	40210.234
658.130	40126.213
658.258	40153.234
658.387	40221.043
658.515	40317.000
658.643	40178.660
658.771	40371.404
658.899	40309.234
659.027	40288.617
659.155	40391.809
659.283	40467.383
659.412	40274.979
659.540	40334.319
659.668	40376.362
659.796	40295.298
659.924	40418.064
660.052	40412.979
660.180	40262.085
660.308	40335.277
660.437	40392.830
660.565	40468.553
660.693	40395.638
660.821	40384.574
660.949	40390.000
661.077	40488.043
661.205	40450.489
661.333	40404.319
661.462	40480.553
661.590	40504.043
661.718	40617.723
661.846	40526.085
661.974	40598.851
662.102	40459.383
662.230	40565.723
662.358	40501.979
662.487	40566.511
662.615	40623.362
662.743	40514.064
662.871	40585.638
662.999	40569.979
663.127	40568.149
663.255	40655.596
663.383	40666.617
663.512	40661.340
663.640	40741.936
663.768	40736.511
663.896	40799.383
664.024	40859.766
664.152	40820.149
664.280	41003.447
664.408	40899.660
664.537	40916.383
664.665	40946.383
664.793	40906.787
664.921	40981.872
665.049	40977.277
665.177	41016.277
665.305	40979.362
665.433	40909.872
665.562	41031.426
665.690	40993.170
665.818	41156.064
665.946	41054.681
666.074	40984.553
666.202	41058.872
666.330	41141.128
666.458	41077.213
666.587	41025.553
666.715	41121.106
666.843	41152.404
666.971	41118.064
667.099	41017.617
667.227	41041.128
667.355	41024.340
667.483	41146.404
667.612	40999.681
667.740	41079.255
667.868	41150.362
667.996	41111.043
668.124	41070.979
668.252	41086.383
668.380	41122.234
668.508	41082.660
668.637	41068.851
668.765	41015.064
668.893	40950.596
669.021	40954.000
669.149	40946.979
669.277	40917.021
669.405	40838.000
669.533	40846.872
669.662	41035.149
669.790	40738.106
669.918	40777.149
670.046	40727.702
670.174	40707.319
670.302	40596.085
670.430	40461.532
670.558	40563.085
670.687	40355.298
670.815	40407.000
670.943	40296.617
671.071	40196.170
671.199	40064.574
671.327	39935.000
671.455	39949.532
671.583	39911.426
671.712	39988.851
671.840	39732.149
671.968	39625.681
672.096	39583.468
672.224	39445.574
672.352	39473.894
672.480	39313.298
672.608	39136.277
672.737	38994.617
672.865	39123.766
672.993	38860.489
673.121	38670.468
673.249	38602.553
673.377	38493.213
673.505	38419.574
673.633	38298.745
673.762	38199.957
673.890	37989.489
674.018	38296.404
674.146	37960.787
674.274	37800.383
674.402	37913.979
674.530	37626.787
674.658	37603.213
674.787	37421.809
674.915	37169.617
675.043	37230.128
675.171	37099.617
675.299	37008.766
675.427	36865.809
675.555	36716.872
675.683	36619.404
675.812	36516.532
675.940	36478.745
676.068	36358.596
676.196	36209.085
676.324	36207.702
676.452	35972.447
676.580	35829.106
676.708	35804.745
676.837	35697.723
676.965	35595.489
677.093	35522.213
677.221	35349.723
677.349	35293.447
677.477	35237.745
677.605	35114.830
677.733	35027.447
677.862	34858.447
677.990	34759.723
678.118	34639.191
678.246	34556.957
678.374	34497.447
678.502	34415.383
678.630	34312.340
678.758	34211.702
678.887	34038.766
679.015	34033.511
679.143	33884.830
679.271	33804.894
679.399	33721.766
679.527	33663.617
679.655	33580.255
679.783	33547.851
679.912	33503.277
680.040	33379.128
680.168	33251.936
680.296	33089.149
680.424	33020.383
680.552	33024.043
680.680	32965.787
680.808	32836.851
680.937	32768.362
681.065	32660.745
681.193	32598.809
681.321	32563.234
681.449	32468.574
681.577	32359.191
681.705	32356.511
681.833	32218.574
681.962	32125.957
682.090	32196.681
682.218	31986.128
682.346	31894.979
682.474	31778.106
682.602	31745.000
682.730	31677.149
682.858	31494.149
682.987	31481.489
683.115	31524.809
683.243	31304.511
683.371	31240.021
683.499	31229.128
683.627	31149.872
683.755	31097.234
683.883	31202.936
684.012	30959.447
684.140	30814.213
684.268	30729.085
684.396	30689.106
684.524	30633.170
684.652	30613.957
684.780	30535.277
684.908	30496.872
685.037	30377.170
685.165	30207.830
685.293	30159.213
685.421	30158.809
685.549	30007.553
685.677	29887.043
685.805	29934.298
685.933	29824.000
686.062	29596.553
686.190	29572.298
686.318	29505.617
686.446	29369.553
686.574	29288.638
686.702	29383.596
686.830	29140.404
686.958	28997.234
687.087	28996.489
687.215	28904.553
687.343	28756.106
687.471	28700.064
687.599	28500.426
687.727	28596.766
687.855	28407.106
687.983	28330.979
688.112	28249.362
688.240	28075.872
688.368	27994.255
688.496	27940.383
688.624	27827.915
688.752	27678.936
688.880	27569.872
689.008	27476.957
689.137	27418.170
689.265	27306.021
689.393	27102.574
689.521	26987.872
689.649	26868.915
689.777	26827.915
689.905	26643.830
690.033	26573.340
690.162	26337.362
690.290	26330.511
690.418	26212.936
690.546	26143.681
690.674	26042.043
690.802	25827.468
690.930	25801.596
691.058	25691.447
691.187	25447.213
691.315	25376.702
691.443	25267.106
691.571	25165.851
691.699	25104.128
691.827	25012.106
691.955	24768.255
692.083	24656.021
692.212	24731.851
692.340	24482.660
692.468	24360.702
692.596	24252.298
692.724	24209.638
692.852	24027.809
692.980	23946.809
693.108	23772.426
693.237	23654.957
693.365	23560.872
693.493	23324.170
693.621	23312.191
693.749	23157.617
693.877	23072.532
694.005	23001.660
694.133	22771.064
694.262	22786.894
694.390	22616.596
694.518	22478.979
694.646	22330.043
694.774	22303.723
694.902	22291.766
695.030	22133.957
695.158	21873.447
695.287	21808.149
695.415	21719.830
695.543	21571.894
695.671	21663.553
695.799	21429.915
695.927	21316.426
696.055	21175.894
696.183	21049.319
696.312	20983.064
696.440	21079.745
696.568	20864.149
696.696	20805.277
696.824	20651.936
696.952	20557.298
697.080	20420.851
697.208	20318.170
697.337	20280.128
697.465	20178.255
697.593	19955.957
697.721	19975.617
697.849	19823.213
697.977	19820.489
698.105	19703.128
698.233	19548.638
698.362	19477.064
698.490	19362.787
698.618	19205.830
698.746	19250.106
698.874	19128.128
699.002	19212.915
699.130	18950.872
699.258	18835.872
699.387	18728.681
699.515	18678.000
699.643	18534.298
699.771	18500.936
699.899	18316.298
700.027	18238.043
700.155	18151.745
700.283	18068.064
700.412	17958.170
700.540	17798.979
700.668	17784.000
700.796	17624.787
700.924	17578.404
701.052	17498.532
701.180	17478.426
701.308	17269.511
701.437	17073.979
701.565	16993.745
701.693	16872.021
701.821	16794.149
701.949	16741.596
702.077	16693.234
702.205	16521.340
702.333	16427.894
702.462	16322.681
702.590	16178.085
702.718	16117.851
702.846	16054.447
702.974	15867.915
703.102	15838.681
703.230	15816.851
703.358	15660.681
703.487	15534.723
703.615	15580.957
703.743	15279.383
703.871	15192.702
703.999	15169.340
704.127	15062.872
704.255	14825.277
704.383	14975.681
704.512	14718.574
704.640	14661.489
704.768	14511.085
704.896	14501.574
705.024	14287.532
705.152	14321.489
705.280	14143.660
705.408	14023.000
705.537	13950.723
705.665	13833.362
705.793	13776.298
705.921	13661.511
706.049	13647.872
706.177	13398.213
706.305	13382.128
706.433	13356.809
706.562	13230.404
706.690	13110.489
706.818	13003.064
706.946	13153.574
707.074	12870.532
707.202	12785.021
707.330	12751.511
707.458	12654.638
707.587	12501.638
707.715	12439.404
707.843	12426.702
707.971	12326.043
708.099	12267.319
708.227	12139.851
708.355	12046.021
708.483	11940.106
708.612	11871.447
708.740	11867.362
708.868	11843.660
708.996	11723.660
709.124	11698.574
709.252	11534.553
709.380	11438.851
709.508	11463.532
709.637	11357.277
709.765	11243.319
709.893	11268.851
710.021	11152.957
710.149	11080.766
710.277	11055.915
710.405	10910.681
710.533	10883.106
710.662	10785.298
710.790	10730.532
710.918	10755.915
711.046	10672.468
711.174	10547.511
711.302	10563.426
711.430	10584.213
711.558	10358.085
711.687	10313.447
711.815	10294.617
711.943	10255.745
712.071	10182.277
712.199	10123.638
712.327	10102.362
712.455	10000.574
712.583	9969.596
712.712	9876.766
712.840	9812.553
712.968	9772.809
713.096	9764.362
713.224	9643.191
713.352	9645.489
713.480	9539.596
713.608	9480.745
713.737	9467.553
713.865	9441.362
713.993	9416.468
714.121	9332.979
714.249	9324.064
714.377	9312.106
714.505	9176.553
714.633	9288.447
714.762	9072.085
714.890	8969.149
715.018	8981.936
715.146	8957.851
715.274	8932.745
715.402	8989.681
715.530	8832.277
715.658	8674.702
715.787	8660.085
715.915	8807.532
716.043	8568.000
716.171	8579.000
716.299	8572.511
716.427	8479.447
716.555	8397.234
716.683	8313.787
716.812	8305.702
716.940	8245.702
717.068	8122.489
717.196	8301.617
717.324	8185.000
717.452	8106.638
717.580	7999.979
717.708	7945.064
717.837	7943.979
717.965	7802.553
718.093	7813.574
718.221	7720.936
718.349	7745.574
718.477	7758.979
718.605	7678.489
718.733	7588.213
718.862	7510.809
718.990	7442.191
719.118	7445.383
719.246	7373.319
719.374	7396.447
719.502	7328.596
719.630	7393.426
719.758	7162.596
719.887	7109.596
720.015	7257.234
720.143	6998.979
720.271	6989.447
720.399	6958.553
720.527	6966.255
720.655	6956.340
720.783	6906.638
720.912	6758.277
721.040	6721.702
721.168	6646.085
721.296	6703.617
721.424	6610.277
721.552	6479.426
721.680	6447.511
721.808	6455.915
721.937	6412.681
722.065	6491.702
722.193	6431.957
722.321	6270.298
722.449	6231.660
722.577	6174.404
722.705	6124.426
722.833	6101.043
722.962	6099.255
723.090	5974.574
723.218	5863.894
723.346	5901.043
723.474	5853.809
723.602	5929.894
723.730	5824.574
723.858	5913.957
723.987	5776.787
724.115	5749.532
724.243	5648.170
724.371	5643.234
724.499	5605.702
724.627	5452.128
724.755	5446.191
724.883	5428.766
725.012	5393.383
725.140	5435.191
725.268	5337.106
725.396	5250.277
725.524	5203.787
725.652	5198.000
725.780	5170.809
725.908	5189.362
726.037	5213.660
726.165	5033.426
726.293	4983.468
726.421	4959.830
726.549	4918.043
726.677	4870.596
726.805	4842.043
726.933	4812.234
727.062	4852.681
727.190	4734.277
727.318	4723.234
727.446	4709.532
727.574	4658.447
727.702	4734.979
727.830	4581.957
727.958	4643.383
728.087	4549.574
728.215	4629.319
728.343	4556.404
728.471	4451.596
728.599	4405.468
728.727	4496.681
728.855	4329.638
728.983	4316.277
729.112	4339.362
729.240	4283.936
729.368	4283.085
729.496	4244.426
729.624	4235.277
729.752	4135.511
729.880	4168.851
730.008	4105.851
730.137	4090.915
730.265	4219.979
730.393	4018.021
730.521	4143.234
730.649	3997.426
730.777	4018.617
730.905	3938.234
731.033	4031.894
731.162	4094.702
731.290	4006.809
731.418	4089.170
731.546	4016.426
731.674	3883.447
731.802	3899.489
731.930	3760.383
732.058	3741.021
732.187	3714.787
732.315	3679.000
732.443	3652.638
732.571	3781.064
732.699	3704.064
732.827	3682.383
732.955	3563.404
733.083	3555.064
733.212	3597.362
733.340	3551.702
733.468	3578.298
733.596	3423.830
733.724	3485.064
733.852	3428.128
733.980	3382.064
734.108	3573.574
734.237	3476.319
734.365	3427.255
734.493	3354.894
734.621	3291.660
734.749	3322.638
734.877	3322.234
735.005	3313.128
735.133	3317.468
735.262	3316.936
735.390	3201.213
735.518	3349.617
735.646	3150.681
735.774	3151.894
735.902	3136.979
736.030	3071.021
736.158	3162.830
736.287	3034.638
736.415	3290.511
736.543	3068.894
736.671	3008.617
736.799	2992.532
736.927	3042.426
737.055	2970.021
737.183	3078.809
737.312	3026.617
737.440	2970.830
737.568	2929.128
737.696	2904.702
737.824	2926.745
737.952	2924.340
738.080	2838.681
738.208	2856.957
738.337	2836.957
738.465	2870.404
738.593	2778.128
738.721	2749.234
738.849	2727.340
738.977	2730.170
739.105	2784.979
739.233	2689.277
739.362	2697.319
739.490	2611.319
739.618	2622.340
739.746	2610.681
739.874	2826.574
740.002	2728.830
740.130	2673.191
740.258	2583.021
740.387	2546.787
740.515	2656.149
740.643	2535.404
740.771	2556.596
740.899	2529.277
741.027	2561.447
741.155	2623.383
741.283	2498.170
741.412	2474.511
741.540	2499.340
741.668	2527.894
741.796	2529.128
741.924	2503.511
742.052	2445.766
742.180	2456.000
742.308	2447.213
742.437	2451.468
742.565	2445.638
742.693	2460.638
742.821	2415.021
742.949	2451.000
743.077	2382.936
743.205	2351.213
743.333	2374.766
743.462	2356.340
743.590	2349.851
743.718	2289.617
743.846	2306.851
743.974	2308.234
744.102	2276.149
744.230	2303.553
744.358	2231.553
744.487	2239.681
744.615	2243.000
744.743	2226.660
744.871	2199.872
744.999	2250.383
745.127	2130.723
745.255	2158.681
745.383	2174.809
745.512	2152.149
745.640	2124.596
745.768	2128.298
745.896	2142.213
746.024	2083.447
746.152	2080.596
746.280	2059.872
746.408	2050.404
746.537	2042.255
746.665	2047.787
746.793	2022.191
746.921	1996.383
747.049	2012.745
747.177	1995.064
747.305	1991.851
747.433	2009.213
747.562	1931.362
747.690	1934.660
747.818	1943.766
747.946	1910.617
748.074	2019.213
748.202	1925.830
748.330	1892.979
748.458	1913.213
748.587	1865.723
748.715	1835.170
748.843	1850.489
748.971	1840.191
749.099	1826.106
749.227	1848.787
749.355	1792.596
749.483	1794.191
749.612	1793.298
749.740	1761.426
749.868	1752.319
749.996	1763.404
750.124	1721.638
750.252	1735.553
750.380	1751.574
750.508	1709.830
750.637	1680.851
750.765	1721.532
750.893	1677.213
751.021	1717.085
751.149	1683.128
751.277	1692.298
751.405	1696.766
751.533	1706.362
751.662	1638.085
751.790	1653.106
751.918	1604.553
752.046	1607.851
752.174	1593.596
752.302	1634.085
752.430	1591.915
752.558	1551.404
752.687	1559.532
752.815	1555.021
752.943	1522.000
753.071	1529.660
753.199	1530.936
753.327	1562.085
753.455	1526.489
753.583	1470.404
753.712	1502.532
753.840	1484.170
753.968	1464.362
754.096	1474.532
754.224	1447.170
754.352	1427.702
754.480	1436.894
754.608	1413.979
754.737	1429.553
754.865	1451.766
754.993	1400.660
755.121	1389.979
755.249	1457.362
755.377	1390.660
755.505	1367.340
755.633	1408.723
755.762	1352.277
755.890	1421.638
756.018	1392.872
756.146	1335.745
756.274	1328.106
756.402	1324.851
756.530	1321.021
756.658	1333.298
756.787	1324.255
756.915	1269.362
757.043	1313.660
757.171	1279.234
757.299	1265.723
757.427	1253.596
757.555	1254.298
757.683	1299.234
757.812	1223.723
757.940	1221.447
758.068	1214.511
758.196	1207.936
758.324	1204.383
758.452	1300.191
758.580	1182.489
758.708	1205.043
758.837	1187.234
758.965	1263.489
759.093	1149.787
759.221	1135.170
759.349	1148.106
759.477	1142.298
759.605	1129.383
759.733	1116.574
759.862	1124.128
759.990	1093.340
760.118	1110.574
760.246	1097.851
760.374	1104.000
760.502	1106.085
760.630	1075.574
760.758	1082.149
760.887	1038.489
761.015	1053.596
761.143	1036.957
761.271	1037.149
761.399	1028.553
761.527	1019.404
761.655	1030.234
761.783	1013.447
761.912	996.872
762.040	996.617
762.168	1028.255
762.296	998.319
762.424	982.085
762.552	988.553
762.680	1041.277
762.808	949.468
762.937	964.298
763.065	1010.298
763.193	998.638
763.321	958.532
763.449	924.191
763.577	927.362
763.705	920.851
763.833	998.170
763.962	916.681
764.090	912.149
764.218	931.234
764.346	923.340
764.474	886.043
764.602	903.298
764.730	887.085
764.858	905.064
764.987	886.851
765.115	926.681
765.243	864.702
765.371	859.277
765.499	840.298
765.627	843.000
765.755	844.745
765.883	858.957
766.012	850.319
766.140	826.766
766.268	841.447
766.396	809.915
766.524	818.851
766.652	817.064
766.780	807.255
766.908	821.830
767.037	814.255
767.165	822.936
767.293	862.894
767.421	781.170
767.549	785.830
767.677	806.851
767.805	781.872
767.933	786.340
768.062	806.277
768.190	778.191
768.318	758.851
768.446	793.660
768.574	805.340
768.702	780.872
768.830	750.000
768.958	752.553
769.087	731.830
769.215	739.787
769.343	739.064
769.471	738.681
769.599	766.979
769.727	757.426
769.855	727.851
769.983	726.681
770.112	714.766
770.240	719.723
770.368	714.085
770.496	706.106
770.624	704.021
770.752	721.000
770.880	739.745
771.008	689.787
771.137	685.426
771.265	744.149
771.393	706.426
771.521	698.809
771.649	684.298
771.777	687.191
771.905	682.128
772.033	689.234
772.162	705.404
772.290	680.128
772.418	729.766
772.546	692.468
772.674	671.723
772.802	691.468
772.930	720.745
773.058	657.149
773.187	674.319
773.315	660.851
773.443	666.957
773.571	660.213
773.699	654.702
773.827	637.404
773.955	685.723
774.083	668.340
774.212	654.362
774.340	666.809
774.468	636.511
774.596	633.106
774.724	632.702
774.852	651.809
774.980	638.383
775.108	634.255
775.237	631.468
775.365	628.426
775.493	630.638
775.621	633.596
775.749	633.447
775.877	607.255
776.005	614.872
776.133	643.702
776.262	628.809
776.390	595.872
776.518	651.553
776.646	610.617
776.774	621.106
776.902	596.681
777.030	595.745
777.158	610.681
777.287	612.383
777.415	584.298
777.543	583.213
777.671	581.468
777.799	582.660
777.927	567.255
778.055	590.894
778.183	583.000
778.312	558.660
778.440	569.766
778.568	572.383
778.696	573.532
778.824	581.085
778.952	567.404
779.080	542.681
779.208	579.213
779.337	572.872
779.465	557.638
779.593	554.277
779.721	573.660
779.849	563.617
779.977	541.128
780.105	530.085
780.233	563.404
780.362	568.298
780.490	570.681
780.618	546.085
780.746	552.851
780.874	528.106
781.002	528.894
781.130	523.596
781.258	516.064
781.387	530.957
781.515	550.574
781.643	521.596
781.771	558.894
781.899	517.255
782.027	561.809
782.155	531.149
782.283	519.702
782.412	510.617
782.540	512.574
782.668	536.255
782.796	491.574
782.924	531.106
783.052	500.681
783.180	529.872
783.308	491.277
783.437	499.064
783.565	514.681
783.693	493.936
783.821	491.021
783.949	478.362
784.077	506.660
784.205	489.936
784.333	537.277
784.462	471.957
784.590	498.681
784.718	494.894
784.846	471.213
784.974	497.638
785.102	522.404
785.230	474.936
785.358	520.915
785.487	476.745
785.615	484.128
785.743	471.383
785.871	473.255
785.999	469.511
786.127	449.596
786.255	476.021
786.383	496.489
786.512	495.021
786.640	457.553
786.768	475.149
786.896	457.574
787.024	456.894
787.152	447.596
787.280	463.404
787.408	444.894
787.537	478.468
787.665	452.426
787.793	484.723
787.921	460.085
788.049	453.681
788.177	438.234
788.305	439.809
788.433	465.532
788.562	429.596
788.690	434.298
788.818	435.681
788.946	454.064
789.074	427.085
789.202	453.957
789.330	451.234
789.458	435.745
789.587	482.511
789.715	442.830
789.843	436.021
789.971	426.128
790.099	415.574
790.227	437.915
790.355	429.979
790.483	446.362
790.612	427.021
790.740	420.936
790.868	441.936
790.996	431.979
791.124	412.681
791.252	423.277
791.380	435.043
791.508	428.447
791.637	412.872
791.765	414.553
791.893	412.574
792.021	410.574
792.149	410.979
792.277	423.468
792.405	397.447
792.533	416.021
792.662	388.319
792.790	400.979
792.918	417.936
793.046	398.596
793.174	417.319
793.302	408.957
793.430	403.468
793.558	388.872
793.687	398.809
793.815	399.787
793.943	413.404
794.071	413.043
794.199	390.234
794.327	396.021
794.455	460.915
794.583	481.936
794.712	387.745
794.840	388.128
794.968	384.702
795.096	414.638
795.224	372.319
795.352	383.915
795.480	417.553
795.608	394.894
795.737	390.362
795.865	380.043
795.993	363.660
796.121	355.915
796.249	380.489
796.377	381.596
796.505	374.298
796.633	361.404
796.762	371.957
796.890	372.064
797.018	393.447
797.146	363.553
797.274	352.170
797.402	366.064
797.530	382.872
797.658	362.809
797.787	400.872
797.915	361.574
798.043	372.064
798.171	359.277
798.299	365.277
798.427	348.809
798.555	370.894
798.683	335.936
798.812	356.660
798.940	412.000
799.068	352.851
799.196	389.745
799.324	346.191
799.452	359.468
799.580	340.213
799.708	400.681
799.837	342.447
799.965	343.000
800.093	369.638
800.221	327.319
800.349	354.830
800.477	347.000
800.605	352.681
800.733	357.915
800.862	350.170
800.990	380.021
801.118	331.936
801.246	330.936
801.374	355.979
801.502	335.340
801.630	322.277
801.758	342.553
801.887	355.915
802.015	326.128
802.143	320.957
802.271	351.149
802.399	334.915
802.527	328.617
802.655	355.106
802.783	371.426
802.912	340.277
803.040	327.277
803.168	315.383
803.296	311.574
803.424	335.894
803.552	326.043
803.680	329.426
803.808	327.319
803.937	320.660
804.065	312.702
804.193	313.957
804.321	360.447
804.449	307.894
804.577	310.426
804.705	323.894
804.833	341.043
804.962	307.128
805.090	313.979
805.218	325.383
805.346	322.681
805.474	327.319
805.602	341.085
805.730	314.319
805.858	298.170
805.987	319.702
806.115	319.894
806.243	311.191
806.371	340.000
806.499	422.106
806.627	444.957
806.755	406.255
806.883	323.511
807.012	310.979
807.140	331.106
807.268	320.447
807.396	327.085
807.524	288.936
807.652	310.021
807.780	367.383
807.908	294.702
808.037	342.191
808.165	329.021
808.293	306.936
808.421	349.319
808.549	296.234
808.677	300.191
808.805	336.553
808.933	297.468
809.062	321.745
809.190	359.468
809.318	299.766
809.446	298.021
809.574	345.936
809.702	291.596
809.830	311.128
809.958	311.957
810.087	298.766
810.215	321.447
810.343	310.170
810.471	305.234
810.599	287.830
810.727	296.511
810.855	283.809
810.983	289.830
811.112	301.426
811.240	293.830
811.368	310.340
811.496	335.553
811.624	304.128
811.752	288.553
811.880	295.511
812.008	279.383
812.137	309.489
812.265	270.723
812.393	308.149
812.521	316.426
812.649	292.128
812.777	285.809
812.905	322.468
813.033	276.106
813.162	277.872
813.290	282.894
813.418	297.043
813.546	277.872
813.674	276.149
813.802	295.447
813.930	272.936
814.058	275.128
814.187	291.319
814.315	278.021
814.443	300.064
814.571	299.617
814.699	309.574
814.827	280.191
814.955	280.426
815.083	304.787
815.212	307.702
815.340	313.191
815.468	269.660
815.596	277.447
815.724	287.149
815.852	273.979
815.980	277.128
816.108	276.596
816.237	269.681
816.365	283.553
816.493	279.213
816.621	269.404
816.749	284.064
816.877	282.660
817.005	296.489
817.133	289.915
817.262	264.787
817.390	273.234
817.518	266.447
817.646	286.489
817.774	266.511
817.902	269.979
818.030	275.447
818.158	307.915
818.287	284.809
818.415	260.723
818.543	271.021
818.671	288.298
818.799	267.000
818.927	288.340
819.055	278.702
819.183	267.574
819.312	276.085
819.440	264.574
819.568	266.234
819.696	273.809
819.824	287.553
819.952	261.234
820.080	272.532
820.208	267.957
820.337	259.383
820.465	296.851
820.593	267.660
820.721	268.426
820.849	271.766
820.977	266.766
821.105	281.426
821.233	241.468
821.362	281.128
821.490	254.809
821.618	267.468
821.746	260.723
821.874	265.766
822.002	262.872
822.130	263.723
822.258	250.915
822.387	253.255
822.515	277.340
822.643	277.213
822.771	268.085
822.899	261.745
823.027	300.319
823.155	253.468
823.283	247.340
823.412	265.213
823.540	255.532
823.668	302.809
823.796	247.447
823.924	285.681
824.052	293.809
824.180	272.830
824.308	246.617
824.437	252.404
824.565	251.766
824.693	276.383
824.821	266.043
824.949	265.106
825.077	262.447
825.205	290.085
825.333	275.085
825.462	280.064
825.590	258.149
825.718	285.021
825.846	258.213
825.974	250.596
826.102	254.511
826.230	254.340
826.358	255.894
826.487	245.809
826.615	294.191
826.743	249.106
826.871	275.234
826.999	303.128
827.127	257.766
827.255	261.468
827.383	246.255
827.512	272.043
827.640	248.234
827.768	242.000
827.896	258.574
828.024	250.128
828.152	257.872
828.280	253.851
828.408	246.128
828.537	251.128
828.665	261.830
828.793	252.255
828.921	244.447
829.049	264.702
829.177	249.957
829.305	239.723
829.433	257.638
829.562	264.766
829.690	243.426
829.818	282.532
829.946	253.106
830.074	255.851
830.202	262.426
830.330	273.362
830.458	292.830
830.587	249.000
830.715	251.915
830.843	246.319
830.971	262.404
831.099	275.383
831.227	242.532
831.355	243.617
831.483	258.170
831.612	281.128
831.740	241.128
831.868	252.298
831.996	242.638
832.124	241.660
832.252	226.702
832.380	261.617
832.508	301.383
832.637	246.553
832.765	250.617
832.893	276.702
833.021	241.170
833.149	233.319
833.277	244.234
833.405	245.872
833.533	231.170
833.662	251.085
833.790	231.894
833.918	246.830
834.046	285.277
834.174	254.617
834.302	240.574
834.430	228.298
834.558	252.894
834.687	260.702
834.815	235.106
834.943	244.404
835.071	243.191
835.199	242.447
835.327	268.426
835.455	237.617
835.583	280.021
835.712	234.106
835.840	238.277
835.968	238.128
836.096	287.532
836.224	251.574
836.352	230.894
836.480	245.213
836.608	252.000
836.737	239.149
836.865	230.660
836.993	252.532
837.121	245.000
837.249	235.043
837.377	267.723
837.505	252.936
837.633	235.277
837.762	236.298
837.890	272.979
838.018	271.894
838.146	279.362
838.274	247.234
838.402	268.894
838.530	241.319
838.658	225.319
838.787	248.766
838.915	245.851
839.043	230.489
839.171	266.383
839.299	227.362
839.427	238.830
839.555	246.638
839.683	264.681
839.812	271.681
839.940	226.851
840.068	254.234
840.196	248.489
840.324	245.936
840.452	240.489
840.580	276.617
840.708	238.553
840.837	274.362
840.965	231.340
841.093	245.319
841.221	236.191
841.349	242.340
841.477	253.511
841.605	251.426
841.733	238.383
841.862	247.723
841.990	299.191
842.118	226.787
842.246	235.489
842.374	244.106
842.502	221.021
842.630	253.319
842.758	265.553
842.887	229.511
843.015	240.511
843.143	256.128
843.271	240.426
843.399	273.447
843.527	250.957
843.655	222.809
843.783	235.809
843.912	230.872
844.040	267.787
844.168	235.340
844.296	231.170
844.424	232.106
844.552	244.255
844.680	256.638
844.808	254.660
844.937	238.553
845.065	239.319
845.193	251.383
845.321	237.638
845.449	237.745
845.577	238.596
845.705	235.170
845.833	227.170
845.962	246.809
846.090	224.702
846.218	244.660
846.346	238.511
846.474	247.809
846.602	234.894
846.730	272.043
846.858	249.681
846.987	240.213
847.115	223.277
847.243	253.872
847.371	254.617
847.499	245.915
847.627	234.553
847.755	226.043
847.883	235.766
848.012	243.277
848.140	235.915
848.268	248.213
848.396	227.213
848.524	260.809
848.652	211.149
848.780	233.468
848.908	241.872
849.037	233.979
849.165	249.447
849.293	244.426
849.421	250.936
849.549	238.447
849.677	237.404
849.805	238.553
849.933	240.809
850.062	230.723
850.190	232.043
850.318	233.043
850.446	230.319
850.574	221.745
850.702	237.106
850.830	236.383
850.958	253.106
851.087	219.383
851.215	243.362
851.343	228.383
851.471	228.383
851.599	242.128
851.727	237.723
851.855	283.277
851.983	240.596
852.112	234.128
852.240	229.043
852.368	238.872
852.496	235.617
852.624	233.213
852.752	237.830
852.880	220.340
853.008	235.170
853.137	243.723
853.265	245.809
853.393	236.362
853.521	244.723
853.649	244.596
853.777	227.404
853.905	244.426
854.033	230.745
854.162	291.340
854.290	239.489
854.418	225.596
854.546	224.702
854.674	332.021
854.802	241.362
854.930	225.745
855.058	217.021
855.187	222.851
855.315	248.128
855.443	218.574
855.571	223.596
855.699	222.213
855.827	228.383
855.955	229.170
856.083	232.447
856.212	239.000
856.340	223.681
856.468	270.915
856.596	246.851
856.724	238.936
856.852	246.043
856.980	227.723
857.108	247.213
857.237	219.979
857.365	262.149
857.493	230.745
857.621	224.894
857.749	234.383
857.877	237.617
858.005	251.447
858.133	225.851
858.262	226.894
858.390	226.043
858.518	208.447
858.646	224.319
858.774	226.787
858.902	207.404
859.030	224.128
859.158	236.489
859.287	241.489
859.415	255.745
859.543	217.191
859.671	220.468
859.799	253.043
859.927	231.319
860.055	231.511
860.183	233.574
860.312	229.255
860.440	234.191
860.568	229.915
860.696	216.085
860.824	286.404
860.952	276.553
861.080	234.489
861.208	232.638
861.337	245.383
861.465	254.596
861.593	257.957
861.721	230.128
861.849	231.213
861.977	219.170
862.105	240.043
862.233	256.596
862.362	242.234
862.490	250.511
862.618	211.915
862.746	231.745
862.874	225.191
863.002	223.362
863.130	254.234
863.258	232.128
863.387	245.426
863.515	252.830
863.643	236.191
863.771	302.170
863.899	224.085
864.027	226.936
864.155	222.745
864.283	250.553
864.412	229.851
864.540	219.702
864.668	224.660
864.796	228.255
864.924	234.872
865.052	232.064
865.180	219.809
865.308	206.553
865.437	234.489
865.565	234.979
865.693	260.957
865.821	239.383
865.949	247.872
866.077	227.191
866.205	236.149
866.333	241.383
866.462	221.596
866.590	229.383
866.718	239.383
866.846	226.681
866.974	240.106
867.102	245.617
867.230	264.638
867.358	233.170
867.487	221.191
867.615	249.234
867.743	232.319
867.871	236.851
867.999	230.489
868.127	223.170
868.255	277.787
868.383	276.979
868.512	222.787
868.640	224.043
868.768	217.617
868.896	208.957
869.024	257.936
869.152	227.617
869.280	234.915
869.408	263.660
869.537	223.809
869.665	297.979
869.793	222.426
869.921	257.489
870.049	232.213
870.177	242.362
870.305	274.787
870.433	213.213
870.562	239.255
870.690	218.213
870.818	222.043
870.946	231.064
871.074	265.362
871.202	242.149
871.330	250.851
871.458	205.553
871.587	228.532
871.715	233.979
871.843	221.851
871.971	223.532
872.099	227.787
872.227	223.532
872.355	240.426
872.483	231.532
872.612	238.489
872.740	236.574
872.868	221.936
872.996	226.255
873.124	232.085
873.252	230.255
873.380	218.723
873.508	220.851
873.637	240.362
873.765	219.936
873.893	276.511
874.021	242.277
874.149	221.681
874.277	232.553
874.405	217.936
874.533	236.553
874.662	1121.766
874.790	229.596
874.918	266.766
875.046	248.511
875.174	244.404
875.302	216.106
875.430	262.617
875.558	239.064
875.687	243.830
875.815	227.128
875.943	225.957
876.071	239.936
876.199	253.574
876.327	268.383
876.455	229.574
876.583	246.170
876.712	222.191
876.840	243.447
876.968	266.745
877.096	225.660
877.224	219.170
877.352	278.617
877.480	223.787
877.608	232.617
877.737	236.383
877.865	229.596
877.993	241.702
878.121	208.702
878.249	223.787
878.377	227.702
878.505	233.532
878.633	234.468
878.762	229.830
878.890	224.340
879.018	285.617
879.146	230.362
879.274	218.149
879.402	242.830
879.530	230.213
879.658	219.511
879.787	222.319
879.915	221.234
880.043	255.340
880.171	215.830
880.299	244.426
880.427	235.894
880.555	232.106
880.683	253.766
880.812	223.553
880.940	256.149
881.068	211.957
881.196	215.128
881.324	235.191
881.452	214.979
881.580	246.404
881.708	245.255
881.837	241.511
881.965	235.383
882.093	245.936
882.221	216.170
882.349	258.277
882.477	250.766
882.605	238.809
882.733	221.213
882.862	267.617
882.990	241.660
883.118	227.277
883.246	230.894
883.374	229.617
883.502	225.489
883.630	213.617
883.758	229.468
883.887	240.638
884.015	218.255
884.143	230.149
884.271	237.383
884.399	218.362
884.527	226.043
884.655	209.021
884.783	243.766
884.912	245.894
885.040	217.872
885.168	289.872
885.296	221.936
885.424	237.085
885.552	242.681
885.680	234.277
885.808	215.106
885.937	235.170
886.065	240.213
886.193	214.085
886.321	263.574
886.449	217.255
886.577	272.809
886.705	219.979
886.833	213.553
886.962	223.553
887.090	232.574
887.218	231.617
887.346	239.809
887.474	260.000
887.602	241.426
887.730	237.362
887.858	249.596
887.987	221.851
888.115	260.277
888.243	233.851
888.371	238.723
888.499	220.915
888.627	240.702
888.755	237.340
888.883	227.766
889.012	224.043
889.140	227.638
889.268	252.340
889.396	234.979
889.524	231.830
889.652	221.213
889.780	215.340
889.908	254.277
890.037	217.106
890.165	226.638
890.293	251.043
890.421	276.809
890.549	235.745
890.677	230.787
890.805	215.340
890.933	252.596
891.062	228.383
891.190	226.532
891.318	234.128
891.446	228.957
891.574	220.213
891.702	227.234
891.830	226.617
891.958	265.809
892.087	264.979
892.215	236.298
892.343	238.851
892.471	242.298
892.599	225.064
892.727	248.319
892.855	226.489
892.983	218.681
893.112	226.809
893.240	217.489
893.368	257.362
893.496	224.596
893.624	230.936
893.752	291.213
893.880	270.298
894.008	208.809
894.137	236.383
894.265	229.255
894.393	230.894
894.521	226.213
894.649	254.319
894.777	231.809
894.905	212.043
895.033	257.213
895.162	226.234
895.290	261.149
895.418	244.021
895.546	238.298
895.674	309.340
895.802	224.638
895.930	240.213
896.058	212.787
896.187	219.702
896.315	216.532
896.443	220.468
896.571	231.213
896.699	229.809
896.827	236.064
896.955	234.213
897.083	226.936
897.212	263.255
897.340	224.000
897.468	211.319
897.596	222.489
897.724	264.106
897.852	238.468
897.980	231.255
898.108	224.809
898.237	218.979
898.365	221.979
898.493	229.383
898.621	227.213
898.749	225.936
898.877	233.894
899.005	207.340
899.133	226.681
899.262	239.532
899.390	260.957
899.518	227.617
899.646	231.213
899.774	249.617
899.902	303.596
900.030	238.957
900.158	230.681
900.287	241.553
900.415	208.638
900.543	238.553
900.671	226.106
900.799	257.830
900.927	220.234
901.055	215.660
901.183	234.426
901.312	253.064
901.440	243.723
901.568	244.596
901.696	235.447
901.824	238.851
901.952	244.957
902.080	343.894
902.208	257.319
902.337	220.617
902.465	240.872
902.593	231.234
902.721	231.745
902.849	231.979
902.977	241.447
903.105	224.489
903.233	243.660
903.362	227.191
903.490	239.702
903.618	227.787
903.746	247.745
903.874	224.128
904.002	236.851
904.130	243.255
904.258	254.702
904.387	220.170
904.515	249.255
904.643	209.191
904.771	224.426
904.899	243.894
905.027	254.574
905.155	232.468
905.283	234.106
905.412	251.660
905.540	233.532
905.668	232.170
905.796	230.766
905.924	231.872
906.052	235.766
906.180	250.511
906.308	240.681
906.437	259.426
906.565	234.298
906.693	241.489
906.821	219.872
906.949	229.000
907.077	244.851
907.205	238.532
907.333	235.106
907.462	231.149
907.590	226.638
907.718	256.617
907.846	273.404
907.974	222.979
908.102	236.021
908.230	263.553
908.358	275.489
908.487	238.064
908.615	237.574
908.743	245.553
908.871	296.596
908.999	235.745
909.127	264.830
909.255	217.000
909.383	232.064
909.512	274.447
909.640	239.064
909.768	237.511
909.896	278.638
910.024	259.681
910.152	245.277
910.280	282.660
910.408	234.745
910.537	232.681
910.665	268.723
910.793	245.255
910.921	252.340
911.049	236.957
911.177	215.553
911.305	251.255
911.433	243.489
911.562	238.362
911.690	241.702
911.818	291.170
911.946	240.234
912.074	257.638
912.202	273.191
912.330	238.255
912.458	237.638
912.587	254.340
912.715	259.979
912.843	263.340
912.971	258.532
913.099	275.191
913.227	262.170
913.355	240.340
913.483	264.319
913.612	255.489
913.740	378.553
913.868	251.511
