0pol_90_110_at_750.00nm_cut_at_984.50Y_01.dat
24.04.2023
10:42:22
cut middle at Y: 984.50
top cursor: 1008 down cursor: 961 mean of: 47 lines , 2560 datapoints
wavelength(nm)	intensity[arb. units]
585.996	12013.532
586.124	11735.511
586.252	11621.617
586.380	11688.447
586.508	11751.468
586.637	11838.574
586.765	11856.362
586.893	11908.319
587.021	11898.872
587.149	11996.809
587.277	11944.894
587.405	12002.979
587.533	11930.234
587.662	12108.660
587.790	12088.319
587.918	12023.660
588.046	12050.170
588.174	11960.553
588.302	12111.638
588.430	12069.957
588.558	12012.447
588.687	12062.298
588.815	12066.596
588.943	12024.149
589.071	12031.809
589.199	12079.532
589.327	12060.702
589.455	11961.277
589.583	12142.979
589.712	12121.596
589.840	12035.426
589.968	12010.340
590.096	12041.170
590.224	12110.234
590.352	12061.681
590.480	12113.191
590.608	12122.213
590.737	12215.766
590.865	12185.787
590.993	12121.191
591.121	12170.894
591.249	12180.511
591.377	12166.809
591.505	12178.255
591.633	12215.787
591.762	12193.298
591.890	12385.979
592.018	12176.319
592.146	12174.234
592.274	12225.745
592.402	12218.638
592.530	12301.851
592.658	12556.468
592.787	12346.170
592.915	12506.426
593.043	12355.000
593.171	12446.574
593.299	12433.383
593.427	12417.404
593.555	12527.979
593.683	12506.574
593.812	12487.085
593.940	12566.745
594.068	12615.915
594.196	12689.106
594.324	12639.021
594.452	12678.936
594.580	12731.149
594.708	12742.064
594.837	12756.106
594.965	12819.830
595.093	12867.128
595.221	12879.638
595.349	13008.830
595.477	12908.149
595.605	12940.277
595.733	12940.766
595.862	13146.809
595.990	13002.957
596.118	13033.809
596.246	13169.574
596.374	13085.021
596.502	13107.298
596.630	13132.532
596.758	13088.957
596.887	13139.660
597.015	13195.532
597.143	13163.660
597.271	13175.447
597.399	13156.809
597.527	13112.787
597.655	13190.383
597.783	13109.191
597.912	13117.809
598.040	13154.915
598.168	13189.319
598.296	13152.915
598.424	13203.511
598.552	13153.340
598.680	13143.809
598.808	13243.021
598.937	13182.979
599.065	13126.787
599.193	13266.723
599.321	13322.362
599.449	13123.191
599.577	13084.851
599.705	13215.340
599.833	13156.106
599.962	13195.574
600.090	13264.617
600.218	13253.064
600.346	13314.702
600.474	13227.489
600.602	13237.426
600.730	13359.277
600.858	13307.043
600.987	13514.787
601.115	13395.319
601.243	13436.298
601.371	13446.702
601.499	13498.745
601.627	13621.851
601.755	13576.872
601.883	13690.021
602.012	13688.872
602.140	13635.511
602.268	13822.213
602.396	13759.298
602.524	13886.489
602.652	13884.064
602.780	13949.085
602.908	13951.851
603.037	13994.149
603.165	14014.830
603.293	14100.766
603.421	14095.319
603.549	14162.617
603.677	14253.830
603.805	14250.936
603.933	14341.638
604.062	14431.340
604.190	14413.532
604.318	14434.745
604.446	14507.809
604.574	14481.106
604.702	14610.872
604.830	14587.298
604.958	14610.745
605.087	14672.660
605.215	14688.064
605.343	14730.894
605.471	14820.745
605.599	14797.000
605.727	14840.915
605.855	14865.319
605.983	14881.319
606.112	14914.298
606.240	14941.468
606.368	14971.191
606.496	15190.723
606.624	14998.298
606.752	15063.851
606.880	15156.000
607.008	15224.085
607.137	15178.170
607.265	15046.319
607.393	15101.447
607.521	15181.404
607.649	15124.340
607.777	15105.468
607.905	15138.298
608.033	15123.532
608.162	15110.021
608.290	15112.085
608.418	15112.638
608.546	15150.511
608.674	15137.319
608.802	15108.489
608.930	15145.745
609.058	15187.660
609.187	15228.511
609.315	15271.702
609.443	15232.957
609.571	15264.234
609.699	15236.383
609.827	15283.660
609.955	15273.106
610.083	15214.021
610.212	15228.936
610.340	15238.851
610.468	15263.787
610.596	15307.340
610.724	15279.915
610.852	15243.915
610.980	15245.468
611.108	15333.979
611.237	15199.170
611.365	15286.638
611.493	15306.383
611.621	15339.106
611.749	15373.149
611.877	15399.234
612.005	15372.574
612.133	15432.660
612.262	15490.511
612.390	15454.319
612.518	15548.745
612.646	15612.723
612.774	15552.702
612.902	15604.957
613.030	15747.447
613.158	15813.957
613.287	15749.681
613.415	15741.106
613.543	15666.277
613.671	15662.617
613.799	15819.362
613.927	15741.638
614.055	15777.979
614.183	15919.255
614.312	15801.298
614.440	16008.660
614.568	15940.979
614.696	15978.064
614.824	16193.170
614.952	16095.255
615.080	16023.745
615.208	16118.915
615.337	16211.149
615.465	16232.596
615.593	16398.021
615.721	16549.936
615.849	16551.574
615.977	16560.064
616.105	16558.404
616.233	16578.234
616.362	16617.979
616.490	16571.532
616.618	16682.638
616.746	16723.936
616.874	16783.660
617.002	16730.894
617.130	16781.043
617.258	16966.617
617.387	16854.298
617.515	16869.319
617.643	16904.447
617.771	16947.489
617.899	16881.021
618.027	16915.745
618.155	17058.234
618.283	16960.000
618.412	16947.064
618.540	17016.596
618.668	16995.809
618.796	17055.468
618.924	17169.106
619.052	17079.170
619.180	17148.383
619.308	17160.660
619.437	17160.894
619.565	17124.085
619.693	17065.170
619.821	17120.170
619.949	17115.532
620.077	17246.340
620.205	17274.723
620.333	17212.021
620.462	17232.596
620.590	17273.723
620.718	17169.213
620.846	17257.255
620.974	17247.596
621.102	17242.447
621.230	17202.915
621.358	17337.830
621.487	17231.723
621.615	17228.106
621.743	17372.979
621.871	17276.702
621.999	17402.851
622.127	17312.319
622.255	17295.298
622.383	17300.766
622.512	17301.404
622.640	17501.511
622.768	17318.872
622.896	17297.660
623.024	17330.532
623.152	17483.766
623.280	17389.851
623.408	17282.766
623.537	17319.553
623.665	17352.702
623.793	17386.149
623.921	17305.532
624.049	17335.681
624.177	17246.085
624.305	17352.085
624.433	17340.957
624.562	17457.681
624.690	17359.128
624.818	17397.702
624.946	17563.447
625.074	17441.106
625.202	17377.872
625.330	17385.957
625.458	17501.574
625.587	17379.915
625.715	17495.574
625.843	17603.298
625.971	17523.553
626.099	17499.191
626.227	17538.085
626.355	17501.277
626.483	17600.021
626.612	17524.021
626.740	17561.277
626.868	17678.000
626.996	17624.851
627.124	17630.830
627.252	17643.170
627.380	17724.000
627.508	17762.617
627.637	17717.894
627.765	17723.660
627.893	17820.851
628.021	17835.170
628.149	18080.574
628.277	18163.957
628.405	18133.234
628.533	17915.681
628.662	17925.128
628.790	17946.894
628.918	17986.447
629.046	17976.915
629.174	18190.915
629.302	18357.468
629.430	18213.766
629.558	18198.915
629.687	18154.872
629.815	18177.064
629.943	18271.979
630.071	18299.894
630.199	18354.553
630.327	18358.596
630.455	18360.532
630.583	18533.170
630.712	18445.894
630.840	18473.426
630.968	18526.638
631.096	18483.128
631.224	18529.383
631.352	18582.319
631.480	18574.915
631.608	18643.128
631.737	18701.362
631.865	18754.957
631.993	18675.766
632.121	18795.745
632.249	18810.404
632.377	18785.021
632.505	18800.426
632.633	18723.277
632.762	18775.489
632.890	18815.489
633.018	18668.809
633.146	18880.277
633.274	18673.617
633.402	18735.383
633.530	18687.383
633.658	18853.085
633.787	18740.000
633.915	18792.766
634.043	18746.851
634.171	18776.043
634.299	18698.702
634.427	18783.426
634.555	18759.660
634.683	18708.128
634.812	18674.851
634.940	18607.043
635.068	18606.574
635.196	18703.660
635.324	18656.809
635.452	18632.915
635.580	18570.404
635.708	18592.489
635.837	18593.383
635.965	18500.872
636.093	18500.532
636.221	18572.106
636.349	18614.766
636.477	18519.830
636.605	18620.340
636.733	18352.106
636.862	18403.064
636.990	18480.894
637.118	18429.532
637.246	18500.702
637.374	18429.191
637.502	18385.085
637.630	18434.191
637.758	18362.979
637.887	18365.532
638.015	18319.149
638.143	18343.128
638.271	18338.787
638.399	18289.468
638.527	18295.000
638.655	18324.340
638.783	18462.681
638.912	18329.106
639.040	18307.340
639.168	18300.000
639.296	18304.957
639.424	18494.383
639.552	18328.702
639.680	18504.723
639.808	18413.638
639.937	18287.596
640.065	18317.021
640.193	18429.511
640.321	18380.532
640.449	18388.404
640.577	18482.234
640.705	18442.170
640.833	18544.957
640.962	18439.383
641.090	18429.723
641.218	18443.298
641.346	18528.404
641.474	18528.617
641.602	18489.128
641.730	18543.553
641.858	18558.447
641.987	18653.617
642.115	18572.830
642.243	18666.213
642.371	18742.000
642.499	18697.362
642.627	18733.553
642.755	18872.043
642.883	18856.000
643.012	18804.787
643.140	18744.936
643.268	18858.596
643.396	18898.809
643.524	19009.021
643.652	18902.979
643.780	18887.979
643.908	18990.787
644.037	19093.340
644.165	18931.830
644.293	18932.298
644.421	19011.660
644.549	19033.830
644.677	18964.830
644.805	19044.830
644.933	18989.255
645.062	19017.830
645.190	19002.021
645.318	19093.191
645.446	19038.660
645.574	19068.128
645.702	19038.213
645.830	19233.532
645.958	19049.702
646.087	19257.170
646.215	19001.872
646.343	19273.851
646.471	19168.383
646.599	19168.468
646.727	19041.319
646.855	19104.787
646.983	19096.979
647.112	19029.298
647.240	19239.426
647.368	19034.191
647.496	19100.277
647.624	19044.660
647.752	19015.340
647.880	19066.447
648.008	19043.596
648.137	18985.149
648.265	18968.681
648.393	19023.489
648.521	18933.128
648.649	18965.255
648.777	19021.426
648.905	18924.383
649.033	18958.702
649.162	18902.404
649.290	18966.872
649.418	18908.383
649.546	18926.191
649.674	18888.085
649.802	18912.894
649.930	18972.723
650.058	18820.043
650.187	18808.936
650.315	18764.000
650.443	18852.128
650.571	18781.894
650.699	18807.617
650.827	18741.596
650.955	18776.426
651.083	18774.255
651.212	18786.872
651.340	18781.170
651.468	18748.723
651.596	18710.830
651.724	18715.383
651.852	18683.277
651.980	18711.915
652.108	18749.830
652.237	18740.617
652.365	18768.298
652.493	18650.532
652.621	18646.787
652.749	18730.426
652.877	18626.702
653.005	18661.170
653.133	18647.191
653.262	18688.936
653.390	18642.043
653.518	18729.043
653.646	18622.553
653.774	18833.170
653.902	18613.128
654.030	18623.617
654.158	18617.213
654.287	18585.936
654.415	18580.149
654.543	18635.426
654.671	18664.170
654.799	18598.234
654.927	18559.362
655.055	18534.340
655.183	18617.681
655.312	18527.957
655.440	18520.936
655.568	18523.957
655.696	18686.255
655.824	18686.745
655.952	18534.191
656.080	18476.340
656.208	18610.574
656.337	18524.809
656.465	18519.702
656.593	18489.511
656.721	18484.574
656.849	18445.511
656.977	18389.681
657.105	18419.957
657.233	18415.596
657.362	18340.745
657.490	18360.532
657.618	18321.362
657.746	18357.255
657.874	18295.128
658.002	18344.298
658.130	18253.191
658.258	18287.660
658.387	18332.362
658.515	18293.213
658.643	18245.468
658.771	18258.191
658.899	18326.277
659.027	18294.660
659.155	18259.319
659.283	18376.085
659.412	18225.106
659.540	18316.000
659.668	18187.660
659.796	18249.468
659.924	18242.021
660.052	18188.787
660.180	18177.681
660.308	18180.277
660.437	18177.213
660.565	18163.319
660.693	18143.830
660.821	18171.915
660.949	18153.340
661.077	18108.362
661.205	18168.043
661.333	18070.277
661.462	18223.745
661.590	18162.319
661.718	18288.766
661.846	18156.872
661.974	18222.936
662.102	18125.106
662.230	18122.234
662.358	18104.766
662.487	18127.574
662.615	18085.787
662.743	18132.915
662.871	18143.553
662.999	18146.149
663.127	18056.574
663.255	18268.383
663.383	18236.064
663.512	18160.617
663.640	18200.106
663.768	18160.617
663.896	18244.085
664.024	18262.511
664.152	18219.468
664.280	18336.064
664.408	18281.362
664.537	18304.255
664.665	18295.830
664.793	18285.298
664.921	18264.532
665.049	18329.936
665.177	18348.681
665.305	18394.043
665.433	18351.170
665.562	18322.681
665.690	18367.553
665.818	18636.702
665.946	18410.064
666.074	18376.149
666.202	18413.489
666.330	18493.170
666.458	18473.128
666.587	18406.638
666.715	18452.660
666.843	18462.979
666.971	18391.489
667.099	18436.213
667.227	18495.340
667.355	18500.489
667.483	18486.298
667.612	18539.170
667.740	18544.255
667.868	18561.809
667.996	18553.149
668.124	18540.319
668.252	18567.213
668.380	18565.106
668.508	18509.447
668.637	18530.511
668.765	18461.979
668.893	18592.106
669.021	18503.489
669.149	18534.553
669.277	18638.851
669.405	18572.532
669.533	18581.681
669.662	18827.255
669.790	18616.787
669.918	18659.851
670.046	18546.213
670.174	18636.894
670.302	18603.319
670.430	18510.638
670.558	18542.106
670.687	18495.404
670.815	18649.787
670.943	18476.191
671.071	18489.106
671.199	18508.362
671.327	18409.979
671.455	18403.787
671.583	18360.915
671.712	18568.085
671.840	18408.000
671.968	18289.894
672.096	18317.617
672.224	18265.043
672.352	18411.021
672.480	18260.362
672.608	18182.809
672.737	18180.787
672.865	18310.936
672.993	18125.298
673.121	18088.894
673.249	18045.745
673.377	17974.404
673.505	17998.021
673.633	17985.106
673.762	17951.936
673.890	17933.447
674.018	18237.021
674.146	17957.213
674.274	17905.255
674.402	18046.979
674.530	17879.617
674.658	17792.128
674.787	17757.745
674.915	17683.085
675.043	17763.979
675.171	17691.809
675.299	17601.426
675.427	17706.830
675.555	17622.426
675.683	17589.894
675.812	17622.000
675.940	17560.638
676.068	17515.851
676.196	17495.979
676.324	17524.043
676.452	17460.340
676.580	17360.064
676.708	17368.532
676.837	17424.149
676.965	17364.766
677.093	17295.213
677.221	17279.638
677.349	17292.894
677.477	17286.638
677.605	17233.660
677.733	17241.085
677.862	17150.553
677.990	17144.766
678.118	17147.702
678.246	17077.489
678.374	17125.681
678.502	17061.298
678.630	17083.255
678.758	17046.617
678.887	17020.872
679.015	17037.660
679.143	16984.489
679.271	16964.936
679.399	16996.149
679.527	16980.553
679.655	16957.723
679.783	17020.340
679.912	16983.766
680.040	16986.064
680.168	16908.213
680.296	16905.191
680.424	16850.362
680.552	16951.319
680.680	16939.021
680.808	16842.681
680.937	16851.596
681.065	16793.447
681.193	16770.362
681.321	16919.787
681.449	16813.957
681.577	16873.191
681.705	16875.447
681.833	16847.957
681.962	16806.277
682.090	16976.255
682.218	16820.404
682.346	16860.745
682.474	16808.362
682.602	16813.489
682.730	16911.936
682.858	16753.702
682.987	16933.766
683.115	16887.851
683.243	16834.617
683.371	16796.830
683.499	16808.617
683.627	16852.319
683.755	16813.426
683.883	17015.447
684.012	16836.915
684.140	16792.213
684.268	16808.723
684.396	16797.723
684.524	16907.191
684.652	16948.191
684.780	16851.702
684.908	16848.170
685.037	16848.170
685.165	16807.064
685.293	16813.596
685.421	16887.979
685.549	16789.702
685.677	16751.064
685.805	16907.553
685.933	16825.447
686.062	16818.383
686.190	16798.277
686.318	16751.085
686.446	16753.000
686.574	16773.681
686.702	16852.043
686.830	16743.234
686.958	16672.298
687.087	16714.574
687.215	16726.511
687.343	16704.064
687.471	16734.340
687.599	16645.745
687.727	16853.298
687.855	16658.809
687.983	16718.340
688.112	16732.128
688.240	16598.787
688.368	16652.149
688.496	16663.872
688.624	16627.447
688.752	16557.851
688.880	16582.532
689.008	16574.957
689.137	16541.064
689.265	16468.277
689.393	16494.638
689.521	16460.277
689.649	16396.915
689.777	16452.277
689.905	16381.362
690.033	16363.149
690.162	16373.213
690.290	16273.745
690.418	16231.149
690.546	16361.787
690.674	16311.255
690.802	16198.298
690.930	16259.000
691.058	16234.681
691.187	16147.830
691.315	16119.255
691.443	16229.872
691.571	16090.128
691.699	16116.277
691.827	16099.255
691.955	16039.404
692.083	15947.830
692.212	16079.979
692.340	15894.170
692.468	15922.149
692.596	15911.809
692.724	16038.745
692.852	15837.106
692.980	15885.766
693.108	15807.872
693.237	15721.106
693.365	15685.489
693.493	15664.362
693.621	15673.617
693.749	15610.787
693.877	15580.213
694.005	15717.532
694.133	15548.489
694.262	15606.957
694.390	15516.170
694.518	15546.894
694.646	15469.340
694.774	15412.298
694.902	15574.681
695.030	15431.234
695.158	15367.957
695.287	15386.702
695.415	15351.489
695.543	15287.574
695.671	15364.277
695.799	15315.702
695.927	15248.936
696.055	15250.681
696.183	15158.149
696.312	15143.426
696.440	15392.277
696.568	15215.277
696.696	15232.894
696.824	15080.362
696.952	15089.128
697.080	15080.872
697.208	14992.872
697.337	15082.043
697.465	15013.660
697.593	14935.489
697.721	14952.277
697.849	14913.106
697.977	14906.851
698.105	14938.362
698.233	14861.851
698.362	14866.362
698.490	14789.000
698.618	14817.745
698.746	14886.128
698.874	14749.596
699.002	14953.851
699.130	14682.064
699.258	14685.766
699.387	14651.596
699.515	14693.234
699.643	14604.000
699.771	14649.426
699.899	14571.021
700.027	14522.043
700.155	14482.851
700.283	14518.596
700.412	14514.170
700.540	14398.681
700.668	14389.447
700.796	14379.511
700.924	14332.553
701.052	14302.128
701.180	14406.362
701.308	14182.766
701.437	14156.426
701.565	14222.128
701.693	14077.660
701.821	14085.043
701.949	14101.362
702.077	14030.809
702.205	13967.319
702.333	13975.447
702.462	13866.553
702.590	13904.553
702.718	13813.617
702.846	13850.851
702.974	13755.830
703.102	13704.106
703.230	13767.043
703.358	13649.809
703.487	13570.383
703.615	13749.787
703.743	13488.128
703.871	13442.213
703.999	13467.532
704.127	13494.426
704.255	13287.170
704.383	13467.681
704.512	13260.106
704.640	13272.766
704.768	13156.319
704.896	13202.383
705.024	13048.489
705.152	13118.340
705.280	13045.340
705.408	12953.106
705.537	12955.617
705.665	12897.255
705.793	12823.340
705.921	12782.064
706.049	12754.957
706.177	12688.043
706.305	12726.043
706.433	12785.447
706.562	12639.489
706.690	12593.340
706.818	12518.915
706.946	12707.660
707.074	12464.447
707.202	12430.681
707.330	12438.447
707.458	12366.489
707.587	12286.106
707.715	12296.319
707.843	12320.043
707.971	12264.723
708.099	12279.191
708.227	12151.766
708.355	12132.426
708.483	12087.170
708.612	12077.043
708.740	12110.681
708.868	12099.957
708.996	12044.596
709.124	12039.426
709.252	11925.085
709.380	11906.255
709.508	11934.191
709.637	11853.277
709.765	11801.574
709.893	11801.085
710.021	11798.106
710.149	11753.851
710.277	11814.553
710.405	11675.000
710.533	11683.638
710.662	11652.213
710.790	11601.574
710.918	11628.638
711.046	11594.957
711.174	11554.809
711.302	11559.362
711.430	11586.702
711.558	11438.809
711.687	11422.681
711.815	11455.809
711.943	11438.383
712.071	11392.383
712.199	11424.426
712.327	11409.851
712.455	11299.638
712.583	11341.596
712.712	11285.723
712.840	11263.489
712.968	11249.936
713.096	11292.447
713.224	11181.362
713.352	11192.149
713.480	11193.426
713.608	11130.872
713.737	11167.383
713.865	11154.085
713.993	11182.936
714.121	11084.000
714.249	11083.872
714.377	11144.957
714.505	11020.426
714.633	11195.426
714.762	11048.957
714.890	10951.064
715.018	10996.319
715.146	10960.234
715.274	10985.170
715.402	11038.383
715.530	10938.489
715.658	10865.426
715.787	10846.170
715.915	10961.766
716.043	10818.404
716.171	10865.574
716.299	10863.277
716.427	10769.043
716.555	10728.511
716.683	10686.553
716.812	10660.936
716.940	10720.043
717.068	10616.872
717.196	10796.872
717.324	10685.447
717.452	10565.128
717.580	10494.447
717.708	10517.064
717.837	10521.319
717.965	10488.255
718.093	10447.489
718.221	10327.383
718.349	10377.702
718.477	10403.915
718.605	10406.128
718.733	10301.979
718.862	10238.872
718.990	10208.447
719.118	10214.383
719.246	10178.106
719.374	10194.787
719.502	10112.426
719.630	10248.255
719.758	10014.489
719.887	9995.404
720.015	10147.021
720.143	9912.468
720.271	9886.723
720.399	9905.915
720.527	9926.255
720.655	9915.234
720.783	9865.489
720.912	9774.638
721.040	9769.277
721.168	9716.596
721.296	9712.191
721.424	9697.723
721.552	9546.340
721.680	9542.170
721.808	9541.426
721.937	9488.979
722.065	9532.532
722.193	9561.213
722.321	9408.915
722.449	9352.021
722.577	9332.255
722.705	9248.574
722.833	9279.298
722.962	9259.085
723.090	9152.681
723.218	9066.489
723.346	9095.936
723.474	9048.064
723.602	9163.511
723.730	9070.809
723.858	9134.298
723.987	9030.957
724.115	9019.851
724.243	8927.574
724.371	8895.191
724.499	8885.021
724.627	8772.426
724.755	8755.979
724.883	8732.340
725.012	8699.596
725.140	8735.426
725.268	8650.617
725.396	8549.553
725.524	8513.383
725.652	8531.064
725.780	8490.277
725.908	8523.681
726.037	8614.298
726.165	8390.149
726.293	8336.702
726.421	8297.596
726.549	8285.638
726.677	8267.979
726.805	8200.255
726.933	8176.766
727.062	8241.894
727.190	8130.574
727.318	8086.106
727.446	8083.723
727.574	8033.617
727.702	8161.830
727.830	7935.617
727.958	7981.213
728.087	7980.957
728.215	8025.170
728.343	7926.213
728.471	7866.532
728.599	7834.872
728.727	7871.234
728.855	7743.872
728.983	7748.851
729.112	7740.319
729.240	7672.319
729.368	7696.809
729.496	7665.319
729.624	7643.106
729.752	7578.660
729.880	7549.574
730.008	7515.170
730.137	7508.447
730.265	7687.191
730.393	7477.170
730.521	7519.617
730.649	7436.617
730.777	7433.128
730.905	7374.234
731.033	7471.872
731.162	7560.319
731.290	7423.894
731.418	7511.319
731.546	7432.723
731.674	7315.787
731.802	7305.957
731.930	7175.915
732.058	7131.511
732.187	7155.255
732.315	7090.681
732.443	7078.128
732.571	7227.872
732.699	7153.681
732.827	7098.064
732.955	7016.383
733.083	6973.511
733.212	7017.319
733.340	6977.660
733.468	7026.915
733.596	6896.745
733.724	6924.340
733.852	6853.277
733.980	6847.617
734.108	7048.617
734.237	6918.830
734.365	6901.872
734.493	6782.447
734.621	6758.149
734.749	6736.745
734.877	6764.745
735.005	6755.043
735.133	6777.319
735.262	6782.106
735.390	6647.234
735.518	6756.426
735.646	6560.106
735.774	6548.383
735.902	6570.745
736.030	6545.532
736.158	6561.936
736.287	6454.362
736.415	6677.426
736.543	6459.787
736.671	6434.979
736.799	6418.426
736.927	6487.936
737.055	6375.809
737.183	6436.638
737.312	6401.106
737.440	6330.468
737.568	6371.255
737.696	6293.809
737.824	6375.511
737.952	6294.723
738.080	6227.851
738.208	6235.106
738.337	6205.830
738.465	6204.915
738.593	6138.936
738.721	6088.362
738.849	6089.809
738.977	6093.681
739.105	6108.489
739.233	6022.383
739.362	6027.851
739.490	5910.745
739.618	5926.745
739.746	5891.064
739.874	6104.681
740.002	6026.000
740.130	5933.489
740.258	5833.064
740.387	5785.660
740.515	5931.532
740.643	5690.660
740.771	5782.319
740.899	5759.426
741.027	5785.851
741.155	5767.000
741.283	5614.383
741.412	5577.660
741.540	5629.574
741.668	5666.255
741.796	5684.000
741.924	5566.702
742.052	5497.638
742.180	5635.064
742.308	5478.106
742.437	5451.660
742.565	5549.234
742.693	5568.213
742.821	5425.979
742.949	5376.468
743.077	5291.043
743.205	5296.596
743.333	5303.489
743.462	5258.340
743.590	5276.979
743.718	5151.872
743.846	5171.362
743.974	5175.872
744.102	5270.426
744.230	5160.596
744.358	5080.319
744.487	5032.830
744.615	5061.745
744.743	4993.638
744.871	4967.404
744.999	5016.745
745.127	4946.745
745.255	4908.404
745.383	4917.936
745.512	4923.362
745.640	4770.787
745.768	4784.532
745.896	4832.149
746.024	4749.957
746.152	4769.532
746.280	4669.362
746.408	4733.234
746.537	4753.277
746.665	4673.064
746.793	4697.447
746.921	4602.426
747.049	4744.043
747.177	4617.574
747.305	4580.149
747.433	4574.745
747.562	4499.936
747.690	4506.319
747.818	4504.085
747.946	4454.702
748.074	4534.383
748.202	4439.936
748.330	4494.426
748.458	4398.191
748.587	4346.234
748.715	4274.255
748.843	4345.404
748.971	4315.064
749.099	4271.362
749.227	4295.894
749.355	4193.766
749.483	4189.830
749.612	4208.830
749.740	4213.191
749.868	4208.170
749.996	4121.489
750.124	4053.936
750.252	4062.574
750.380	4062.468
750.508	4055.787
750.637	4024.489
750.765	4042.319
750.893	3975.489
751.021	3911.957
751.149	4123.745
751.277	4033.957
751.405	3975.383
751.533	4023.915
751.662	3948.894
751.790	3963.638
751.918	3913.298
752.046	3837.511
752.174	3781.426
752.302	3996.085
752.430	3817.532
752.558	3764.149
752.687	3683.596
752.815	3689.064
752.943	3785.830
753.071	3720.660
753.199	3604.489
753.327	3715.404
753.455	3741.426
753.583	3586.043
753.712	3622.638
753.840	3564.234
753.968	3577.128
754.096	3473.979
754.224	3440.702
754.352	3402.532
754.480	3414.936
754.608	3408.702
754.737	3373.128
754.865	3467.745
754.993	3336.106
755.121	3298.638
755.249	3373.532
755.377	3302.000
755.505	3255.319
755.633	3310.957
755.762	3220.723
755.890	3335.255
756.018	3351.489
756.146	3344.809
756.274	3199.128
756.402	3137.596
756.530	3096.298
756.658	3101.660
756.787	3110.574
756.915	3040.553
757.043	3095.213
757.171	3037.149
757.299	2962.149
757.427	3014.021
757.555	2958.638
757.683	3000.298
757.812	2903.106
757.940	2925.213
758.068	3037.596
758.196	3042.872
758.324	2802.957
758.452	2959.191
758.580	2950.426
758.708	2773.362
758.837	2752.830
758.965	2851.617
759.093	2888.638
759.221	2684.383
759.349	2684.809
759.477	2815.213
759.605	2702.936
759.733	2686.170
759.862	2692.915
759.990	2602.298
760.118	2632.383
760.246	2581.447
760.374	2729.553
760.502	2613.809
760.630	2563.894
760.758	2588.234
760.887	2530.319
761.015	2592.574
761.143	2489.000
761.271	2514.851
761.399	2469.574
761.527	2473.511
761.655	2504.872
761.783	2468.064
761.912	2415.277
762.040	2400.319
762.168	2444.660
762.296	2388.447
762.424	2383.617
762.552	2367.979
762.680	2422.872
762.808	2312.809
762.937	2327.851
763.065	2369.957
763.193	2329.511
763.321	2288.468
763.449	2245.872
763.577	2272.319
763.705	2232.298
763.833	2334.298
763.962	2224.489
764.090	2210.319
764.218	2206.681
764.346	2184.936
764.474	2134.021
764.602	2170.638
764.730	2132.638
764.858	2138.936
764.987	2115.574
765.115	2121.787
765.243	2108.426
765.371	2099.723
765.499	2039.106
765.627	2035.362
765.755	2034.723
765.883	2049.213
766.012	2024.617
766.140	2006.340
766.268	1977.596
766.396	1948.638
766.524	1979.213
766.652	1945.319
766.780	1949.979
766.908	1948.170
767.037	1944.340
767.165	1929.277
767.293	1978.702
767.421	1888.362
767.549	1888.979
767.677	1882.723
767.805	1872.447
767.933	1884.511
768.062	1882.064
768.190	1847.894
768.318	1852.362
768.446	1841.979
768.574	1851.787
768.702	1848.362
768.830	1792.787
768.958	1792.809
769.087	1775.383
769.215	1782.447
769.343	1795.702
769.471	1740.617
769.599	1777.191
769.727	1771.915
769.855	1751.043
769.983	1725.681
770.112	1732.106
770.240	1699.064
770.368	1713.511
770.496	1702.660
770.624	1688.213
770.752	1705.106
770.880	1704.723
771.008	1673.234
771.137	1673.766
771.265	1698.617
771.393	1690.170
771.521	1658.255
771.649	1644.106
771.777	1633.106
771.905	1637.298
772.033	1638.830
772.162	1648.043
772.290	1608.447
772.418	1645.745
772.546	1627.766
772.674	1591.957
772.802	1608.149
772.930	1635.234
773.058	1585.745
773.187	1587.021
773.315	1571.085
773.443	1569.404
773.571	1548.617
773.699	1546.128
773.827	1528.915
773.955	1582.255
774.083	1539.447
774.212	1518.149
774.340	1538.574
774.468	1522.128
774.596	1518.830
774.724	1502.766
774.852	1498.617
774.980	1464.809
775.108	1489.277
775.237	1483.681
775.365	1479.851
775.493	1455.213
775.621	1454.681
775.749	1463.830
775.877	1454.213
776.005	1426.872
776.133	1448.809
776.262	1442.106
776.390	1398.660
776.518	1445.319
776.646	1398.957
776.774	1413.468
776.902	1397.426
777.030	1385.255
777.158	1385.468
777.287	1401.106
777.415	1355.957
777.543	1352.702
777.671	1361.979
777.799	1339.234
777.927	1339.021
778.055	1345.511
778.183	1321.362
778.312	1306.191
778.440	1314.957
778.568	1327.894
778.696	1301.553
778.824	1317.489
778.952	1301.872
779.080	1289.638
779.208	1308.553
779.337	1286.191
779.465	1288.468
779.593	1274.894
779.721	1286.851
779.849	1258.766
779.977	1241.638
780.105	1223.128
780.233	1255.532
780.362	1262.340
780.490	1256.021
780.618	1225.787
780.746	1224.340
780.874	1201.085
781.002	1212.745
781.130	1179.957
781.258	1156.936
781.387	1194.043
781.515	1200.362
781.643	1157.915
781.771	1203.319
781.899	1159.872
782.027	1204.745
782.155	1159.681
782.283	1161.064
782.412	1131.128
782.540	1126.787
782.668	1158.043
782.796	1092.043
782.924	1155.617
783.052	1098.362
783.180	1145.574
783.308	1097.426
783.437	1110.851
783.565	1096.574
783.693	1087.255
783.821	1097.553
783.949	1062.255
784.077	1085.957
784.205	1075.340
784.333	1104.553
784.462	1018.404
784.590	1053.660
784.718	1063.426
784.846	1031.915
784.974	1063.000
785.102	1075.681
785.230	1020.851
785.358	1072.532
785.487	1022.596
785.615	1023.702
785.743	997.021
785.871	1028.936
785.999	998.851
786.127	985.383
786.255	1015.064
786.383	1018.213
786.512	1014.787
786.640	995.277
786.768	998.766
786.896	968.851
787.024	974.447
787.152	974.511
787.280	958.383
787.408	941.809
787.537	965.809
787.665	936.298
787.793	980.043
787.921	944.745
788.049	933.766
788.177	916.702
788.305	911.723
788.433	938.128
788.562	914.128
788.690	902.106
788.818	897.106
788.946	920.298
789.074	881.830
789.202	911.723
789.330	895.362
789.458	880.000
789.587	930.745
789.715	889.979
789.843	875.638
789.971	878.787
790.099	862.957
790.227	868.723
790.355	862.723
790.483	884.404
790.612	851.936
790.740	863.362
790.868	861.681
790.996	844.340
791.124	843.979
791.252	838.447
791.380	830.383
791.508	832.213
791.637	820.085
791.765	812.234
791.893	809.277
792.021	811.234
792.149	790.894
792.277	802.979
792.405	786.553
792.533	816.511
792.662	762.000
792.790	774.936
792.918	792.511
793.046	769.319
793.174	811.170
793.302	777.574
793.430	778.106
793.558	753.213
793.687	768.426
793.815	756.298
793.943	777.511
794.071	775.191
794.199	745.447
794.327	740.000
794.455	809.809
794.583	819.766
794.712	728.936
794.840	731.936
794.968	738.426
795.096	748.511
795.224	697.191
795.352	716.319
795.480	754.745
795.608	712.809
795.737	715.489
795.865	697.553
795.993	685.149
796.121	678.745
796.249	694.787
796.377	696.660
796.505	676.213
796.633	664.298
796.762	666.298
796.890	671.745
797.018	691.894
797.146	659.149
797.274	649.617
797.402	669.766
797.530	660.532
797.658	651.043
797.787	686.745
797.915	645.064
798.043	667.383
798.171	630.511
798.299	642.085
798.427	628.787
798.555	630.851
798.683	610.319
798.812	632.681
798.940	673.319
799.068	616.979
799.196	655.957
799.324	611.064
799.452	618.064
799.580	593.894
799.708	649.936
799.837	588.596
799.965	590.043
800.093	606.234
800.221	569.149
800.349	584.553
800.477	586.383
800.605	588.702
800.733	577.745
800.862	579.340
800.990	619.340
801.118	565.128
801.246	566.915
801.374	576.681
801.502	560.021
801.630	546.277
801.758	554.149
801.887	560.128
802.015	553.617
802.143	544.830
802.271	570.298
802.399	541.128
802.527	536.340
802.655	577.383
802.783	589.319
802.912	532.298
803.040	532.872
803.168	521.872
803.296	524.851
803.424	542.851
803.552	520.894
803.680	521.787
803.808	527.638
803.937	522.170
804.065	510.191
804.193	511.915
804.321	568.277
804.449	493.617
804.577	503.617
804.705	507.553
804.833	534.574
804.962	492.532
805.090	502.638
805.218	518.362
805.346	509.681
805.474	502.319
805.602	511.574
805.730	488.872
805.858	473.532
805.987	495.638
806.115	488.915
806.243	492.681
806.371	512.596
806.499	585.383
806.627	604.766
806.755	577.255
806.883	491.617
807.012	475.447
807.140	497.085
807.268	488.106
807.396	482.234
807.524	458.766
807.652	465.319
807.780	520.404
807.908	458.362
808.037	507.043
808.165	482.787
808.293	457.617
808.421	505.553
808.549	443.404
808.677	451.064
808.805	482.468
808.933	452.617
809.062	454.468
809.190	498.064
809.318	459.170
809.446	435.085
809.574	498.191
809.702	424.745
809.830	445.489
809.958	449.468
810.087	445.532
810.215	453.851
810.343	446.064
810.471	444.362
810.599	423.255
810.727	426.511
810.855	415.085
810.983	410.191
811.112	431.277
811.240	423.489
811.368	428.638
811.496	469.596
811.624	429.213
811.752	413.660
811.880	422.234
812.008	401.574
812.137	430.085
812.265	388.383
812.393	426.638
812.521	428.128
812.649	412.489
812.777	411.340
812.905	431.426
813.033	394.319
813.162	395.213
813.290	395.872
813.418	414.191
813.546	395.426
813.674	392.234
813.802	409.000
813.930	381.149
814.058	389.340
814.187	400.638
814.315	385.468
814.443	407.426
814.571	402.319
814.699	414.043
814.827	383.553
814.955	375.447
815.083	406.298
815.212	401.979
815.340	412.596
815.468	378.915
815.596	376.660
815.724	386.702
815.852	377.468
815.980	369.660
816.108	368.085
816.237	370.277
816.365	371.511
816.493	386.255
816.621	358.447
816.749	370.043
816.877	381.064
817.005	394.830
817.133	375.872
817.262	350.723
817.390	364.362
817.518	349.894
817.646	378.936
817.774	354.957
817.902	353.745
818.030	348.894
818.158	393.426
818.287	375.979
818.415	346.660
818.543	354.957
818.671	370.979
818.799	346.894
818.927	373.191
819.055	359.851
819.183	341.766
819.312	349.234
819.440	335.234
819.568	336.872
819.696	347.043
819.824	363.957
819.952	344.085
820.080	341.191
820.208	338.213
820.337	340.660
820.465	374.596
820.593	335.979
820.721	336.681
820.849	346.128
820.977	329.532
821.105	345.830
821.233	312.787
821.362	355.702
821.490	321.021
821.618	323.936
821.746	333.234
821.874	340.426
822.002	326.872
822.130	328.532
822.258	316.404
822.387	321.319
822.515	338.915
822.643	343.468
822.771	342.191
822.899	327.702
823.027	374.277
823.155	314.043
823.283	306.532
823.412	327.596
823.540	315.702
823.668	367.681
823.796	308.511
823.924	342.426
824.052	350.468
824.180	328.447
824.308	305.553
824.437	307.511
824.565	312.106
824.693	328.000
824.821	323.021
824.949	322.660
825.077	320.043
825.205	344.255
825.333	326.787
825.462	334.489
825.590	315.106
825.718	330.766
825.846	309.957
825.974	302.043
826.102	308.830
826.230	295.553
826.358	308.617
826.487	288.574
826.615	348.043
826.743	295.532
826.871	317.766
826.999	355.617
827.127	305.851
827.255	306.638
827.383	295.021
827.512	319.851
827.640	287.872
827.768	290.043
827.896	306.894
828.024	299.957
828.152	298.872
828.280	306.383
828.408	290.255
828.537	291.489
828.665	300.170
828.793	300.021
828.921	280.936
829.049	310.000
829.177	285.383
829.305	286.234
829.433	298.340
829.562	306.723
829.690	283.745
829.818	315.000
829.946	288.851
830.074	301.915
830.202	311.851
830.330	307.660
830.458	332.766
830.587	281.617
830.715	293.681
830.843	281.851
830.971	298.915
831.099	311.915
831.227	279.596
831.355	280.979
831.483	293.298
831.612	317.468
831.740	286.000
831.868	293.723
831.996	287.426
832.124	280.809
832.252	265.957
832.380	290.681
832.508	333.043
832.637	281.213
832.765	289.617
832.893	318.979
833.021	273.468
833.149	271.362
833.277	289.851
833.405	279.553
833.533	268.213
833.662	279.532
833.790	271.340
833.918	282.362
834.046	317.851
834.174	285.766
834.302	278.298
834.430	268.426
834.558	281.362
834.687	291.213
834.815	268.851
834.943	274.489
835.071	280.170
835.199	273.745
835.327	298.000
835.455	262.766
835.583	303.809
835.712	262.383
835.840	268.404
835.968	271.191
836.096	319.191
836.224	283.170
836.352	260.638
836.480	281.447
836.608	273.128
836.737	264.340
836.865	262.170
836.993	272.830
837.121	272.255
837.249	263.851
837.377	287.511
837.505	275.340
837.633	267.298
837.762	265.830
837.890	299.915
838.018	302.106
838.146	309.915
838.274	279.809
838.402	291.340
838.530	265.000
838.658	253.957
838.787	277.638
838.915	268.894
839.043	255.447
839.171	282.957
839.299	251.702
839.427	259.404
839.555	266.957
839.683	284.872
839.812	293.915
839.940	257.447
840.068	271.574
840.196	277.851
840.324	261.213
840.452	266.723
840.580	296.404
840.708	261.979
840.837	293.255
840.965	254.872
841.093	265.170
841.221	255.936
841.349	264.766
841.477	271.064
841.605	273.979
841.733	261.638
841.862	272.745
841.990	311.085
842.118	242.702
842.246	257.383
842.374	257.979
842.502	244.894
842.630	269.681
842.758	284.851
842.887	253.255
843.015	255.872
843.143	277.574
843.271	261.234
843.399	289.340
843.527	265.915
843.655	242.383
843.783	253.170
843.912	247.319
844.040	286.745
844.168	243.872
844.296	251.255
844.424	247.468
844.552	269.234
844.680	274.574
844.808	269.170
844.937	252.851
845.065	254.936
845.193	275.298
845.321	257.298
845.449	256.511
845.577	252.681
845.705	246.787
845.833	245.787
845.962	263.021
846.090	239.277
846.218	257.617
846.346	263.064
846.474	264.298
846.602	253.702
846.730	289.468
846.858	262.638
846.987	255.447
847.115	241.106
847.243	268.787
847.371	266.787
847.499	263.936
847.627	253.085
847.755	243.234
847.883	252.809
848.012	260.809
848.140	251.255
848.268	265.660
848.396	242.468
848.524	274.894
848.652	225.830
848.780	257.447
848.908	260.511
849.037	249.511
849.165	262.532
849.293	258.936
849.421	266.213
849.549	255.489
849.677	250.149
849.805	248.787
849.933	250.362
850.062	246.170
850.190	247.447
850.318	249.766
850.446	242.213
850.574	238.596
850.702	240.000
850.830	251.809
850.958	259.936
851.087	231.021
851.215	253.936
851.343	235.745
851.471	240.234
851.599	252.787
851.727	248.872
851.855	293.660
851.983	249.255
852.112	251.298
852.240	236.468
852.368	244.404
852.496	243.170
852.624	240.106
852.752	248.170
852.880	227.064
853.008	249.404
853.137	247.787
853.265	252.468
853.393	249.894
853.521	255.915
853.649	251.043
853.777	235.830
853.905	252.702
854.033	238.979
854.162	304.894
854.290	247.064
854.418	229.702
854.546	237.234
854.674	341.085
854.802	241.021
854.930	232.617
855.058	222.106
855.187	227.426
855.315	261.426
855.443	226.383
855.571	235.702
855.699	228.106
855.827	247.766
855.955	235.489
856.083	240.021
856.212	253.511
856.340	235.426
856.468	280.851
856.596	262.787
856.724	245.723
856.852	245.553
856.980	236.277
857.108	252.426
857.237	225.638
857.365	266.468
857.493	241.660
857.621	226.234
857.749	245.340
857.877	246.766
858.005	261.064
858.133	239.362
858.262	233.894
858.390	231.447
858.518	221.447
858.646	229.872
858.774	227.191
858.902	210.468
859.030	236.830
859.158	244.191
859.287	247.000
859.415	262.660
859.543	222.936
859.671	224.894
859.799	256.638
859.927	242.894
860.055	236.043
860.183	246.064
860.312	235.234
860.440	239.489
860.568	234.362
860.696	224.021
860.824	298.638
860.952	282.489
861.080	243.191
861.208	236.553
861.337	238.128
861.465	263.830
861.593	269.468
861.721	228.532
861.849	228.426
861.977	218.234
862.105	247.277
862.233	262.191
862.362	248.957
862.490	259.957
862.618	228.957
862.746	229.383
862.874	232.787
863.002	230.660
863.130	256.128
863.258	238.000
863.387	247.723
863.515	249.787
863.643	244.936
863.771	309.255
863.899	234.745
864.027	221.043
864.155	222.043
864.283	258.128
864.412	236.936
864.540	230.809
864.668	225.319
864.796	225.702
864.924	238.191
865.052	244.745
865.180	228.213
865.308	212.064
865.437	236.979
865.565	238.745
865.693	264.234
865.821	237.468
865.949	256.468
866.077	234.553
866.205	241.617
866.333	244.894
866.462	227.128
866.590	233.638
866.718	250.043
866.846	230.723
866.974	244.979
867.102	247.574
867.230	268.638
867.358	238.255
867.487	230.617
867.615	262.894
867.743	235.404
867.871	240.532
867.999	238.064
868.127	228.021
868.255	279.426
868.383	284.787
868.512	232.723
868.640	232.979
868.768	228.277
868.896	215.766
869.024	260.128
869.152	230.979
869.280	240.532
869.408	266.021
869.537	219.702
869.665	297.447
869.793	227.596
869.921	266.745
870.049	241.043
870.177	242.936
870.305	274.340
870.433	220.830
870.562	241.957
870.690	217.553
870.818	228.766
870.946	239.638
871.074	269.596
871.202	244.000
871.330	251.723
871.458	213.553
871.587	231.468
871.715	233.702
871.843	219.213
871.971	219.702
872.099	233.681
872.227	223.362
872.355	240.106
872.483	241.979
872.612	244.596
872.740	245.213
872.868	231.489
872.996	233.553
873.124	234.255
873.252	231.511
873.380	226.830
873.508	217.745
873.637	248.979
873.765	223.149
873.893	276.851
874.021	237.574
874.149	225.957
874.277	234.596
874.405	229.021
874.533	232.277
874.662	1130.064
874.790	238.702
874.918	265.447
875.046	252.489
875.174	246.681
875.302	221.702
875.430	268.362
875.558	241.660
875.687	248.766
875.815	232.617
875.943	227.149
876.071	241.979
876.199	261.255
876.327	266.340
876.455	233.021
876.583	248.298
876.712	228.745
876.840	239.298
876.968	276.745
877.096	230.170
877.224	219.468
877.352	277.234
877.480	218.362
877.608	237.213
877.737	236.787
877.865	229.894
877.993	252.787
878.121	216.128
878.249	224.957
878.377	231.638
878.505	239.128
878.633	235.936
878.762	229.851
878.890	223.362
879.018	293.426
879.146	232.957
879.274	222.511
879.402	251.574
879.530	235.255
879.658	222.957
879.787	234.872
879.915	231.255
880.043	260.298
880.171	220.532
880.299	245.681
880.427	235.872
880.555	229.234
880.683	247.872
880.812	222.745
880.940	256.426
881.068	223.106
881.196	233.000
881.324	240.489
881.452	222.787
881.580	251.511
881.708	249.830
881.837	240.085
881.965	235.468
882.093	244.000
882.221	224.511
882.349	260.426
882.477	257.723
882.605	243.404
882.733	225.234
882.862	269.936
882.990	245.021
883.118	228.638
883.246	233.511
883.374	225.362
883.502	226.553
883.630	215.830
883.758	227.723
883.887	241.936
884.015	212.468
884.143	228.915
884.271	241.979
884.399	224.362
884.527	228.404
884.655	212.681
884.783	242.723
884.912	254.043
885.040	219.894
885.168	298.298
885.296	220.426
885.424	234.915
885.552	252.574
885.680	233.872
885.808	224.936
885.937	241.574
886.065	245.319
886.193	222.319
886.321	266.404
886.449	223.468
886.577	272.106
886.705	225.936
886.833	219.319
886.962	228.851
887.090	229.596
887.218	233.894
887.346	246.723
887.474	258.851
887.602	242.809
887.730	239.979
887.858	255.191
887.987	222.766
888.115	264.043
888.243	241.447
888.371	244.553
888.499	218.447
888.627	245.468
888.755	241.404
888.883	231.660
889.012	233.149
889.140	235.511
889.268	253.723
889.396	243.255
889.524	233.000
889.652	217.319
889.780	213.255
889.908	260.085
890.037	226.149
890.165	228.787
890.293	249.319
890.421	280.106
890.549	239.106
890.677	230.298
890.805	219.851
890.933	252.809
891.062	227.979
891.190	229.000
891.318	239.426
891.446	235.255
891.574	223.787
891.702	231.851
891.830	228.128
891.958	254.064
892.087	265.340
892.215	243.404
892.343	235.447
892.471	239.830
892.599	223.894
892.727	249.404
892.855	227.404
892.983	215.277
893.112	234.383
893.240	225.426
893.368	256.936
893.496	233.532
893.624	232.830
893.752	285.660
893.880	267.851
894.008	203.894
894.137	238.851
894.265	238.426
894.393	229.596
894.521	225.489
894.649	249.894
894.777	231.128
894.905	215.128
895.033	260.213
895.162	220.447
895.290	256.553
895.418	247.511
895.546	239.872
895.674	311.638
895.802	220.404
895.930	244.809
896.058	210.681
896.187	225.553
896.315	219.638
896.443	222.957
896.571	222.340
896.699	230.574
896.827	240.936
896.955	241.723
897.083	221.213
897.212	260.723
897.340	224.064
897.468	209.553
897.596	221.915
897.724	270.021
897.852	238.532
897.980	233.106
898.108	223.766
898.237	225.064
898.365	218.043
898.493	231.426
898.621	227.681
898.749	226.745
898.877	238.213
899.005	217.745
899.133	222.809
899.262	239.787
899.390	258.106
899.518	236.574
899.646	229.277
899.774	258.085
899.902	310.681
900.030	241.830
900.158	230.213
900.287	248.404
900.415	214.660
900.543	240.085
900.671	233.106
900.799	246.404
900.927	221.894
901.055	222.043
901.183	233.872
901.312	253.277
901.440	248.638
901.568	240.213
901.696	231.830
901.824	245.936
901.952	241.106
902.080	346.213
902.208	260.638
902.337	221.170
902.465	239.766
902.593	229.957
902.721	238.489
902.849	237.255
902.977	243.553
903.105	231.298
903.233	244.489
903.362	231.915
903.490	242.638
903.618	225.553
903.746	254.255
903.874	224.851
904.002	238.298
904.130	240.872
904.258	248.723
904.387	228.809
904.515	245.149
904.643	215.404
904.771	230.085
904.899	241.362
905.027	258.277
905.155	242.319
905.283	236.872
905.412	259.277
905.540	226.894
905.668	235.319
905.796	229.447
905.924	226.596
906.052	233.404
906.180	259.979
906.308	243.298
906.437	262.553
906.565	237.936
906.693	233.149
906.821	220.404
906.949	229.830
907.077	246.617
907.205	241.809
907.333	241.362
907.462	228.362
907.590	223.915
907.718	257.957
907.846	273.809
907.974	230.362
908.102	241.617
908.230	267.830
908.358	274.872
908.487	239.830
908.615	239.532
908.743	248.191
908.871	296.532
908.999	236.596
909.127	268.064
909.255	218.638
909.383	229.298
909.512	269.596
909.640	236.809
909.768	239.447
909.896	286.298
910.024	261.830
910.152	247.106
910.280	283.426
910.408	237.936
910.537	238.766
910.665	269.404
910.793	243.660
910.921	256.872
911.049	228.489
911.177	226.894
911.305	254.255
911.433	246.553
911.562	241.255
911.690	250.362
911.818	298.915
911.946	232.064
912.074	255.553
912.202	274.553
912.330	239.319
912.458	243.809
912.587	256.851
912.715	266.191
912.843	268.255
912.971	259.894
913.099	279.872
913.227	266.660
913.355	245.809
913.483	265.085
913.612	259.021
913.740	377.596
913.868	261.681
