0pol_70_90_at_750.00nm_cut_at_984.50Y_01.dat
24.04.2023
10:58:16
cut middle at Y: 984.50
top cursor: 1008 down cursor: 961 mean of: 47 lines , 2560 datapoints
wavelength(nm)	intensity[arb. units]
585.996	12613.574
586.124	12338.426
586.252	12252.660
586.380	12360.872
586.508	12384.277
586.637	12439.489
586.765	12502.106
586.893	12542.809
587.021	12615.213
587.149	12695.468
587.277	12661.128
587.405	12713.766
587.533	12643.340
587.662	12872.234
587.790	12840.468
587.918	12764.787
588.046	12827.064
588.174	12772.957
588.302	12839.064
588.430	12820.362
588.558	12748.532
588.687	12844.511
588.815	12869.745
588.943	12818.277
589.071	12846.362
589.199	12952.809
589.327	12919.957
589.455	12805.660
589.583	12945.936
589.712	13005.106
589.840	12923.809
589.968	12969.362
590.096	12997.383
590.224	13043.383
590.352	13034.872
590.480	13005.234
590.608	13013.936
590.737	13140.681
590.865	13115.553
590.993	13062.106
591.121	13156.298
591.249	13169.234
591.377	13181.383
591.505	13198.426
591.633	13287.277
591.762	13221.745
591.890	13450.745
592.018	13260.255
592.146	13287.447
592.274	13234.426
592.402	13351.234
592.530	13437.532
592.658	13638.298
592.787	13422.511
592.915	13637.723
593.043	13553.660
593.171	13627.553
593.299	13641.043
593.427	13665.745
593.555	13733.596
593.683	13764.106
593.812	13825.723
593.940	13778.723
594.068	13869.149
594.196	13990.319
594.324	14025.106
594.452	14039.426
594.580	14034.596
594.708	14124.872
594.837	14144.447
594.965	14250.979
595.093	14344.064
595.221	14293.298
595.349	14440.426
595.477	14401.064
595.605	14482.213
595.733	14462.426
595.862	14664.957
595.990	14548.404
596.118	14570.191
596.246	14741.426
596.374	14606.957
596.502	14736.362
596.630	14759.000
596.758	14760.766
596.887	14777.553
597.015	14804.319
597.143	14883.532
597.271	14838.872
597.399	14858.106
597.527	14854.617
597.655	14933.511
597.783	14894.298
597.912	14903.383
598.040	14974.936
598.168	15006.638
598.296	14977.596
598.424	14971.106
598.552	15024.723
598.680	14981.574
598.808	15195.170
598.937	15116.149
599.065	15046.936
599.193	15116.213
599.321	15201.234
599.449	15099.936
599.577	15099.149
599.705	15203.638
599.833	15138.170
599.962	15253.170
600.090	15257.532
600.218	15308.128
600.346	15414.000
600.474	15381.723
600.602	15351.830
600.730	15441.277
600.858	15507.447
600.987	15680.043
601.115	15604.085
601.243	15707.681
601.371	15748.362
601.499	15734.766
601.627	15864.532
601.755	15842.489
601.883	16029.191
602.012	16065.745
602.140	16080.936
602.268	16286.617
602.396	16241.979
602.524	16371.191
602.652	16327.128
602.780	16417.553
602.908	16478.745
603.037	16582.106
603.165	16619.532
603.293	16707.979
603.421	16796.128
603.549	16797.426
603.677	16992.447
603.805	17030.532
603.933	17140.979
604.062	17227.596
604.190	17239.596
604.318	17335.000
604.446	17344.255
604.574	17481.957
604.702	17577.000
604.830	17579.426
604.958	17668.681
605.087	17773.723
605.215	17768.638
605.343	17859.830
605.471	18012.894
605.599	18014.213
605.727	18086.170
605.855	18196.915
605.983	18152.170
606.112	18295.915
606.240	18276.936
606.368	18309.809
606.496	18565.596
606.624	18396.596
606.752	18522.894
606.880	18604.957
607.008	18770.064
607.137	18691.213
607.265	18597.426
607.393	18639.191
607.521	18771.766
607.649	18724.255
607.777	18777.894
607.905	18866.298
608.033	18821.936
608.162	18884.681
608.290	18925.660
608.418	18896.191
608.546	19015.809
608.674	18991.255
608.802	19007.766
608.930	19037.723
609.058	19117.149
609.187	19158.213
609.315	19190.787
609.443	19205.511
609.571	19287.319
609.699	19276.872
609.827	19322.957
609.955	19331.362
610.083	19367.277
610.212	19333.170
610.340	19353.957
610.468	19487.723
610.596	19536.043
610.724	19532.638
610.852	19547.191
610.980	19628.489
611.108	19688.170
611.237	19644.064
611.365	19722.574
611.493	19734.553
611.621	19910.043
611.749	19915.638
611.877	19995.723
612.005	20006.191
612.133	20121.553
612.262	20204.681
612.390	20235.957
612.518	20282.170
612.646	20458.511
612.774	20411.553
612.902	20520.532
613.030	20602.234
613.158	20863.362
613.287	20799.340
613.415	20820.383
613.543	20787.574
613.671	20904.489
613.799	21091.660
613.927	20993.553
614.055	21057.532
614.183	21265.298
614.312	21206.234
614.440	21400.553
614.568	21416.404
614.696	21552.468
614.824	21681.255
614.952	21714.021
615.080	21756.319
615.208	21897.064
615.337	21918.766
615.465	22072.872
615.593	22212.574
615.721	22417.170
615.849	22509.255
615.977	22589.766
616.105	22618.766
616.233	22692.149
616.362	22786.894
616.490	22777.213
616.618	22917.170
616.746	22975.766
616.874	23127.085
617.002	23163.681
617.130	23263.702
617.258	23424.915
617.387	23373.511
617.515	23436.745
617.643	23470.830
617.771	23583.043
617.899	23658.936
618.027	23719.936
618.155	23849.638
618.283	23795.553
618.412	23938.106
618.540	24041.532
618.668	24012.851
618.796	24186.447
618.924	24264.511
619.052	24269.000
619.180	24376.468
619.308	24442.532
619.437	24499.979
619.565	24479.830
619.693	24485.085
619.821	24591.553
619.949	24554.660
620.077	24742.404
620.205	24776.702
620.333	24894.957
620.462	24841.000
620.590	25055.447
620.718	24965.170
620.846	25129.426
620.974	25114.830
621.102	25197.213
621.230	25259.085
621.358	25454.106
621.487	25303.149
621.615	25282.489
621.743	25591.809
621.871	25516.362
621.999	25656.851
622.127	25644.936
622.255	25734.064
622.383	25723.532
622.512	25756.596
622.640	25917.000
622.768	25838.936
622.896	25946.043
623.024	26014.617
623.152	26102.043
623.280	26115.851
623.408	26050.468
623.537	26147.511
623.665	26236.936
623.793	26341.745
623.921	26323.574
624.049	26389.021
624.177	26446.064
624.305	26572.149
624.433	26552.170
624.562	26674.064
624.690	26657.830
624.818	26823.404
624.946	26998.085
625.074	26861.277
625.202	26914.043
625.330	26949.936
625.458	27021.298
625.587	27086.638
625.715	27123.340
625.843	27300.447
625.971	27355.830
626.099	27388.128
626.227	27487.745
626.355	27464.936
626.483	27513.660
626.612	27592.638
626.740	27761.213
626.868	27780.149
626.996	27835.511
627.124	27878.149
627.252	27940.213
627.380	28097.064
627.508	28232.043
627.637	28136.936
627.765	28258.277
627.893	28473.638
628.021	28475.681
628.149	28834.830
628.277	28988.915
628.405	29038.468
628.533	28898.574
628.662	28908.106
628.790	29028.702
628.918	29060.745
629.046	29096.255
629.174	29429.979
629.302	29760.979
629.430	29638.340
629.558	29639.277
629.687	29661.170
629.815	29786.979
629.943	29886.532
630.071	30030.660
630.199	30152.723
630.327	30172.851
630.455	30323.170
630.583	30507.574
630.712	30446.574
630.840	30559.532
630.968	30745.128
631.096	30727.574
631.224	30904.447
631.352	30889.979
631.480	30946.191
631.608	31124.000
631.737	31262.362
631.865	31380.745
631.993	31317.298
632.121	31543.255
632.249	31543.723
632.377	31630.681
632.505	31619.404
632.633	31648.745
632.762	31713.170
632.890	31872.936
633.018	31781.149
633.146	32083.872
633.274	31904.574
633.402	32077.681
633.530	32058.128
633.658	32208.702
633.787	32095.085
633.915	32231.596
634.043	32240.191
634.171	32310.277
634.299	32260.426
634.427	32301.362
634.555	32424.787
634.683	32366.830
634.812	32396.766
634.940	32436.234
635.068	32456.489
635.196	32505.936
635.324	32520.106
635.452	32580.319
635.580	32601.681
635.708	32581.298
635.837	32666.745
635.965	32578.596
636.093	32591.681
636.221	32660.404
636.349	32726.915
636.477	32638.000
636.605	32868.085
636.733	32709.915
636.862	32706.085
636.990	32798.809
637.118	32796.723
637.246	32769.957
637.374	32750.511
637.502	32873.894
637.630	32792.106
637.758	32839.979
637.887	32892.617
638.015	32947.085
638.143	32967.255
638.271	32942.617
638.399	32904.766
638.527	32981.298
638.655	33069.745
638.783	33203.702
638.912	33191.936
639.040	33139.915
639.168	33218.298
639.296	33183.000
639.424	33389.617
639.552	33284.936
639.680	33535.638
639.808	33427.638
639.937	33484.511
640.065	33476.489
640.193	33615.340
640.321	33666.489
640.449	33679.085
640.577	33913.766
640.705	33767.149
640.833	33915.362
640.962	33914.553
641.090	33953.383
641.218	34078.468
641.346	34167.638
641.474	34143.489
641.602	34253.170
641.730	34344.638
641.858	34438.936
641.987	34506.000
642.115	34491.574
642.243	34624.255
642.371	34717.085
642.499	34749.000
642.627	34858.170
642.755	34982.681
642.883	35028.340
643.012	35022.915
643.140	35138.638
643.268	35117.298
643.396	35278.830
643.524	35471.234
643.652	35452.511
643.780	35459.426
643.908	35538.915
644.037	35573.638
644.165	35684.064
644.293	35710.830
644.421	35751.128
644.549	35841.191
644.677	35734.277
644.805	35912.596
644.933	35872.468
645.062	36029.553
645.190	35972.234
645.318	36127.489
645.446	36001.149
645.574	36151.404
645.702	36037.851
645.830	36353.064
645.958	36194.000
646.087	36400.064
646.215	36237.191
646.343	36467.319
646.471	36312.617
646.599	36314.723
646.727	36395.830
646.855	36262.936
646.983	36402.723
647.112	36371.830
647.240	36500.000
647.368	36315.191
647.496	36427.830
647.624	36404.106
647.752	36456.723
647.880	36395.255
648.008	36364.894
648.137	36349.894
648.265	36369.574
648.393	36353.787
648.521	36364.489
648.649	36302.638
648.777	36346.532
648.905	36278.979
649.033	36324.787
649.162	36325.213
649.290	36367.043
649.418	36157.447
649.546	36250.787
649.674	36297.638
649.802	36220.766
649.930	36404.745
650.058	36267.021
650.187	36177.638
650.315	36258.085
650.443	36258.872
650.571	36189.383
650.699	36251.404
650.827	36199.340
650.955	36193.553
651.083	36171.277
651.212	36118.064
651.340	36215.936
651.468	36163.766
651.596	36112.234
651.724	36086.532
651.852	36102.000
651.980	36018.447
652.108	36133.128
652.237	36068.596
652.365	36117.723
652.493	36039.872
652.621	35995.511
652.749	36134.872
652.877	36001.702
653.005	35932.915
653.133	36015.000
653.262	35946.426
653.390	35939.170
653.518	36076.043
653.646	35997.362
653.774	36051.234
653.902	35945.660
654.030	35881.426
654.158	35891.043
654.287	35798.426
654.415	35809.234
654.543	35886.532
654.671	35808.702
654.799	35856.362
654.927	35767.426
655.055	35729.426
655.183	35725.383
655.312	35828.383
655.440	35781.660
655.568	35604.000
655.696	35770.255
655.824	35775.511
655.952	35707.638
656.080	35614.085
656.208	35631.851
656.337	35490.277
656.465	35532.213
656.593	35480.021
656.721	35463.213
656.849	35481.277
656.977	35369.702
657.105	35343.638
657.233	35305.021
657.362	35346.277
657.490	35250.468
657.618	35238.894
657.746	35243.213
657.874	35163.596
658.002	35170.872
658.130	35131.830
658.258	35000.915
658.387	35125.809
658.515	34980.638
658.643	35009.851
658.771	34979.149
658.899	34948.383
659.027	34873.574
659.155	34877.128
659.283	34949.021
659.412	34826.085
659.540	34819.170
659.668	34687.085
659.796	34640.362
659.924	34689.064
660.052	34671.872
660.180	34590.787
660.308	34558.085
660.437	34599.809
660.565	34525.766
660.693	34470.362
660.821	34425.617
660.949	34350.213
661.077	34392.681
661.205	34448.638
661.333	34389.298
661.462	34457.085
661.590	34294.766
661.718	34418.660
661.846	34300.213
661.974	34442.809
662.102	34187.872
662.230	34205.170
662.358	34150.660
662.487	34251.021
662.615	34107.191
662.743	34098.064
662.871	34164.277
662.999	34123.447
663.127	33999.915
663.255	34208.021
663.383	34127.319
663.512	34144.809
663.640	34122.660
663.768	34118.638
663.896	34135.213
664.024	34103.149
664.152	34052.340
664.280	34051.191
664.408	34058.851
664.537	34025.766
664.665	34083.085
664.793	33891.426
664.921	33943.745
665.049	33959.319
665.177	33937.404
665.305	33987.915
665.433	33952.234
665.562	33877.234
665.690	33948.702
665.818	34103.021
665.946	33960.128
666.074	33886.489
666.202	33880.681
666.330	33927.468
666.458	33853.681
666.587	33782.489
666.715	33813.234
666.843	33768.660
666.971	33785.872
667.099	33757.064
667.227	33703.681
667.355	33770.574
667.483	33721.213
667.612	33698.723
667.740	33631.553
667.868	33726.064
667.996	33639.574
668.124	33656.340
668.252	33588.149
668.380	33607.511
668.508	33547.234
668.637	33597.255
668.765	33436.319
668.893	33456.915
669.021	33396.191
669.149	33472.957
669.277	33439.277
669.405	33244.340
669.533	33268.362
669.662	33508.277
669.790	33211.660
669.918	33211.766
670.046	33100.851
670.174	33133.085
670.302	33174.106
670.430	32952.957
670.558	32922.936
670.687	32825.617
670.815	32899.234
670.943	32778.745
671.071	32640.468
671.199	32542.745
671.327	32457.681
671.455	32491.128
671.583	32353.511
671.712	32427.255
671.840	32324.872
671.968	32130.681
672.096	32074.298
672.224	31990.277
672.352	32076.766
672.480	31943.660
672.608	31721.766
672.737	31656.574
672.865	31799.021
672.993	31529.383
673.121	31489.532
673.249	31333.723
673.377	31260.936
673.505	31200.511
673.633	31111.809
673.762	30935.532
673.890	30883.213
674.018	31042.106
674.146	30711.532
674.274	30681.532
674.402	30850.830
674.530	30534.319
674.658	30373.021
674.787	30348.957
674.915	30230.681
675.043	30195.766
675.171	30153.128
675.299	29966.298
675.427	29874.979
675.555	29842.723
675.683	29751.468
675.812	29642.106
675.940	29542.191
676.068	29505.532
676.196	29441.404
676.324	29378.021
676.452	29254.809
676.580	29077.936
676.708	29084.021
676.837	29068.255
676.965	28987.766
677.093	28896.532
677.221	28741.809
677.349	28728.660
677.477	28599.085
677.605	28496.043
677.733	28517.319
677.862	28358.660
677.990	28333.511
678.118	28241.362
678.246	28173.043
678.374	28179.766
678.502	28013.660
678.630	27994.489
678.758	27929.702
678.887	27766.830
679.015	27760.723
679.143	27729.574
679.271	27591.681
679.399	27581.830
679.527	27551.340
679.655	27440.426
679.783	27494.426
679.912	27392.766
680.040	27329.319
680.168	27246.489
680.296	27186.298
680.424	27090.766
680.552	27047.021
680.680	27202.830
680.808	26941.872
680.937	26870.723
681.065	26809.532
681.193	26820.191
681.321	26725.277
681.449	26784.234
681.577	26666.702
681.705	26597.404
681.833	26601.894
681.962	26487.404
682.090	26586.851
682.218	26408.511
682.346	26306.574
682.474	26323.043
682.602	26242.511
682.730	26261.553
682.858	26114.574
682.987	26149.872
683.115	26155.149
683.243	26014.149
683.371	25952.809
683.499	25987.319
683.627	25953.489
683.755	25927.957
683.883	25987.511
684.012	25777.021
684.140	25656.894
684.268	25715.979
684.396	25633.745
684.524	25603.319
684.652	25636.723
684.780	25549.766
684.908	25493.574
685.037	25475.213
685.165	25328.851
685.293	25299.574
685.421	25308.277
685.549	25230.255
685.677	25197.553
685.805	25237.340
685.933	25084.064
686.062	24944.128
686.190	24931.872
686.318	24979.809
686.446	24783.255
686.574	24791.851
686.702	24862.915
686.830	24713.723
686.958	24637.957
687.087	24596.638
687.215	24567.234
687.343	24439.340
687.471	24352.872
687.599	24291.532
687.727	24470.809
687.855	24204.128
687.983	24239.766
688.112	24204.936
688.240	24034.894
688.368	23940.468
688.496	23913.234
688.624	23865.787
688.752	23767.277
688.880	23652.894
689.008	23589.404
689.137	23516.766
689.265	23443.702
689.393	23418.021
689.521	23238.000
689.649	23208.319
689.777	23144.255
689.905	23021.957
690.033	22983.574
690.162	22886.787
690.290	22791.872
690.418	22755.596
690.546	22706.596
690.674	22598.191
690.802	22477.000
690.930	22473.404
691.058	22379.957
691.187	22209.362
691.315	22198.170
691.443	22114.553
691.571	22028.787
691.699	22021.574
691.827	21942.809
691.955	21720.489
692.083	21691.213
692.212	21718.617
692.340	21512.277
692.468	21455.426
692.596	21416.191
692.724	21452.809
692.852	21160.872
692.980	21178.979
693.108	21055.404
693.237	20967.404
693.365	20810.213
693.493	20754.702
693.621	20701.383
693.749	20611.787
693.877	20530.553
694.005	20571.723
694.133	20381.064
694.262	20337.979
694.390	20223.000
694.518	20167.255
694.646	20060.234
694.774	19985.979
694.902	19992.085
695.030	19860.404
695.158	19692.319
695.287	19679.170
695.415	19674.170
695.543	19472.468
695.671	19596.213
695.799	19385.426
695.927	19311.298
696.055	19211.787
696.183	19152.404
696.312	19060.064
696.440	19182.660
696.568	18986.106
696.696	18992.766
696.824	18766.362
696.952	18703.745
697.080	18670.234
697.208	18556.213
697.337	18612.319
697.465	18500.894
697.593	18327.021
697.721	18347.702
697.849	18223.489
697.977	18182.277
698.105	18150.447
698.233	18020.872
698.362	17955.894
698.490	17929.532
698.618	17820.660
698.746	17805.319
698.874	17687.702
699.002	17835.681
699.130	17548.106
699.258	17468.319
699.387	17340.511
699.515	17344.830
699.643	17236.894
699.771	17212.596
699.899	17090.404
700.027	17086.745
700.155	16923.532
700.283	16889.915
700.412	16842.766
700.540	16720.511
700.668	16663.447
700.796	16535.468
700.924	16532.383
701.052	16412.894
701.180	16419.915
701.308	16263.191
701.437	16106.574
701.565	16076.362
701.693	15972.809
701.821	15936.872
701.949	15882.851
702.077	15844.553
702.205	15680.383
702.333	15636.000
702.462	15480.681
702.590	15437.894
702.718	15356.766
702.846	15217.979
702.974	15176.766
703.102	15107.872
703.230	15128.298
703.358	14956.213
703.487	14857.362
703.615	14928.340
703.743	14662.234
703.871	14602.979
703.999	14576.021
704.127	14581.149
704.255	14314.574
704.383	14451.511
704.512	14232.128
704.640	14162.106
704.768	14014.851
704.896	14013.787
705.024	13865.979
705.152	13826.553
705.280	13675.468
705.408	13614.383
705.537	13598.851
705.665	13494.553
705.793	13398.298
705.921	13298.000
706.049	13256.936
706.177	13104.043
706.305	13099.426
706.433	13060.532
706.562	12936.085
706.690	12830.574
706.818	12732.106
706.946	12917.830
707.074	12635.043
707.202	12577.851
707.330	12533.766
707.458	12412.447
707.587	12308.745
707.715	12225.170
707.843	12293.106
707.971	12208.617
708.099	12112.894
708.227	12016.383
708.355	11916.468
708.483	11823.511
708.612	11774.979
708.740	11803.809
708.868	11768.830
708.996	11638.489
709.124	11592.277
709.252	11497.872
709.380	11416.489
709.508	11470.787
709.637	11295.043
709.765	11260.426
709.893	11281.872
710.021	11125.851
710.149	11074.277
710.277	11060.894
710.405	10938.894
710.533	10948.702
710.662	10847.362
710.790	10822.596
710.918	10778.128
711.046	10767.809
711.174	10601.489
711.302	10623.234
711.430	10618.085
711.558	10444.255
711.687	10426.362
711.815	10393.383
711.943	10340.702
712.071	10270.787
712.199	10281.596
712.327	10186.617
712.455	10109.362
712.583	10148.383
712.712	10024.319
712.840	9986.894
712.968	9912.766
713.096	9920.234
713.224	9817.191
713.352	9800.574
713.480	9755.787
713.608	9682.149
713.737	9664.426
713.865	9619.085
713.993	9581.277
714.121	9496.043
714.249	9462.489
714.377	9545.638
714.505	9381.170
714.633	9524.596
714.762	9327.234
714.890	9198.660
715.018	9243.766
715.146	9132.660
715.274	9163.319
715.402	9218.362
715.530	9098.745
715.658	8976.468
715.787	8894.702
715.915	9052.213
716.043	8833.000
716.171	8872.043
716.299	8837.362
716.427	8721.489
716.555	8667.660
716.683	8649.447
716.812	8593.128
716.940	8533.213
717.068	8403.957
717.196	8582.106
717.324	8531.277
717.452	8363.553
717.580	8305.723
717.708	8251.681
717.837	8268.277
717.965	8135.404
718.093	8132.574
718.221	8033.723
718.349	8051.362
718.477	8050.809
718.605	8005.234
718.733	7888.085
718.862	7831.553
718.990	7763.404
719.118	7763.702
719.246	7678.149
719.374	7714.234
719.502	7641.447
719.630	7724.787
719.758	7485.170
719.887	7441.043
720.015	7604.809
720.143	7304.468
720.271	7292.234
720.399	7306.404
720.527	7295.979
720.655	7242.404
720.783	7212.681
720.912	7049.277
721.040	7085.872
721.168	6970.340
721.296	7020.021
721.424	6938.596
721.552	6830.340
721.680	6831.532
721.808	6792.234
721.937	6729.702
722.065	6797.447
722.193	6778.383
722.321	6603.149
722.449	6530.745
722.577	6511.000
722.705	6389.681
722.833	6424.596
722.962	6425.681
723.090	6302.638
723.218	6230.043
723.346	6243.809
723.474	6222.213
723.602	6274.489
723.730	6183.170
723.858	6272.511
723.987	6070.383
724.115	6070.723
724.243	5968.149
724.371	5938.000
724.499	5943.723
724.627	5782.426
724.755	5785.745
724.883	5729.106
725.012	5725.830
725.140	5714.723
725.268	5659.489
725.396	5512.957
725.524	5502.149
725.652	5513.596
725.780	5464.702
725.908	5507.957
726.037	5565.787
726.165	5355.362
726.293	5280.404
726.421	5244.511
726.549	5202.362
726.677	5198.255
726.805	5138.213
726.933	5077.532
727.062	5122.596
727.190	5102.298
727.318	4997.106
727.446	4995.106
727.574	4976.489
727.702	5057.277
727.830	4861.872
727.958	4896.340
728.087	4838.915
728.215	4908.085
728.343	4841.234
728.471	4706.149
728.599	4688.128
728.727	4782.532
728.855	4637.617
728.983	4629.277
729.112	4622.830
729.240	4537.553
729.368	4554.702
729.496	4534.702
729.624	4512.404
729.752	4438.426
729.880	4446.723
730.008	4381.319
730.137	4353.085
730.265	4504.532
730.393	4294.064
730.521	4378.340
730.649	4245.830
730.777	4212.851
730.905	4205.936
731.033	4260.723
731.162	4363.447
731.290	4236.745
731.418	4338.064
731.546	4272.170
731.674	4127.532
731.802	4129.064
731.930	4000.489
732.058	3949.489
732.187	3918.617
732.315	3915.809
732.443	3875.787
732.571	4063.723
732.699	3919.787
732.827	3882.702
732.955	3792.404
733.083	3753.957
733.212	3827.468
733.340	3795.511
733.468	3778.085
733.596	3686.468
733.724	3699.681
733.852	3675.170
733.980	3629.447
734.108	3793.638
734.237	3677.553
734.365	3650.404
734.493	3542.234
734.621	3529.340
734.749	3518.596
734.877	3533.766
735.005	3512.489
735.133	3531.383
735.262	3491.277
735.390	3396.021
735.518	3512.511
735.646	3344.064
735.774	3359.532
735.902	3337.149
736.030	3297.298
736.158	3362.702
736.287	3230.532
736.415	3456.468
736.543	3224.404
736.671	3206.234
736.799	3201.723
736.927	3252.298
737.055	3141.064
737.183	3238.213
737.312	3198.957
737.440	3130.787
737.568	3145.638
737.696	3060.553
737.824	3077.383
737.952	3055.766
738.080	3011.383
738.208	3017.745
738.337	2998.149
738.465	2996.362
738.593	2923.787
738.721	2882.894
738.849	2933.149
738.977	2899.043
739.105	2945.064
739.233	2847.234
739.362	2828.468
739.490	2747.106
739.618	2761.532
739.746	2747.043
739.874	2952.106
740.002	2859.957
740.130	2804.298
740.258	2690.745
740.387	2613.830
740.515	2812.319
740.643	2611.511
740.771	2646.851
740.899	2611.574
741.027	2685.447
741.155	2736.362
741.283	2550.532
741.412	2526.064
741.540	2542.128
741.668	2622.085
741.796	2653.830
741.924	2582.681
742.052	2526.596
742.180	2606.191
742.308	2514.894
742.437	2521.149
742.565	2568.532
742.693	2563.532
742.821	2512.532
742.949	2537.872
743.077	2470.213
743.205	2450.021
743.333	2463.660
743.462	2424.894
743.590	2446.234
743.718	2393.191
743.846	2391.915
743.974	2383.511
744.102	2362.383
744.230	2373.830
744.358	2342.660
744.487	2314.894
744.615	2327.277
744.743	2312.277
744.871	2278.766
744.999	2312.830
745.127	2248.298
745.255	2257.340
745.383	2258.213
745.512	2239.277
745.640	2181.617
745.768	2200.191
745.896	2167.596
746.024	2156.362
746.152	2128.489
746.280	2138.064
746.408	2112.404
746.537	2091.277
746.665	2115.191
746.793	2091.106
746.921	2060.532
747.049	2085.447
747.177	2065.277
747.305	2069.617
747.433	2062.617
747.562	1996.319
747.690	1988.426
747.818	1983.638
747.946	1976.553
748.074	2069.191
748.202	1975.468
748.330	1953.723
748.458	1934.383
748.587	1904.319
748.715	1874.660
748.843	1892.404
748.971	1884.915
749.099	1887.128
749.227	1874.660
749.355	1832.383
749.483	1826.915
749.612	1813.255
749.740	1807.298
749.868	1782.213
749.996	1798.255
750.124	1774.574
750.252	1773.638
750.380	1769.128
750.508	1737.809
750.637	1708.681
750.765	1740.957
750.893	1711.766
751.021	1725.277
751.149	1708.468
751.277	1702.596
751.405	1723.851
751.533	1733.787
751.662	1661.234
751.790	1678.596
751.918	1622.404
752.046	1620.915
752.174	1600.936
752.302	1663.489
752.430	1594.702
752.558	1575.702
752.687	1574.553
752.815	1559.638
752.943	1534.064
753.071	1512.021
753.199	1534.830
753.327	1579.532
753.455	1526.447
753.583	1473.149
753.712	1480.936
753.840	1481.404
753.968	1460.170
754.096	1464.021
754.224	1450.426
754.352	1438.170
754.480	1433.660
754.608	1418.149
754.737	1419.872
754.865	1441.340
754.993	1406.766
755.121	1387.106
755.249	1455.064
755.377	1394.021
755.505	1362.660
755.633	1404.532
755.762	1359.872
755.890	1414.574
756.018	1386.511
756.146	1316.234
756.274	1318.085
756.402	1326.404
756.530	1303.000
756.658	1311.255
756.787	1302.745
756.915	1268.574
757.043	1292.553
757.171	1270.979
757.299	1265.660
757.427	1239.574
757.555	1237.957
757.683	1272.638
757.812	1214.064
757.940	1212.894
758.068	1186.660
758.196	1182.000
758.324	1177.979
758.452	1273.468
758.580	1160.021
758.708	1177.043
758.837	1156.957
758.965	1234.723
759.093	1121.447
759.221	1123.426
759.349	1130.447
759.477	1098.319
759.605	1105.362
759.733	1107.638
759.862	1100.979
759.990	1086.489
760.118	1096.064
760.246	1061.553
760.374	1060.894
760.502	1076.809
760.630	1058.021
760.758	1042.596
760.887	1005.936
761.015	1036.043
761.143	1006.319
761.271	1014.574
761.399	981.851
761.527	1002.809
761.655	1003.979
761.783	980.021
761.912	972.149
762.040	961.872
762.168	1000.234
762.296	964.532
762.424	952.170
762.552	955.106
762.680	1010.638
762.808	909.723
762.937	946.447
763.065	982.340
763.193	954.766
763.321	931.745
763.449	877.149
763.577	906.957
763.705	888.298
763.833	966.404
763.962	880.574
764.090	864.596
764.218	892.553
764.346	875.000
764.474	863.681
764.602	858.149
764.730	858.745
764.858	873.128
764.987	850.468
765.115	896.787
765.243	836.213
765.371	817.660
765.499	796.915
765.627	806.149
765.755	800.681
765.883	827.340
766.012	815.404
766.140	789.021
766.268	790.170
766.396	780.617
766.524	783.553
766.652	778.617
766.780	767.957
766.908	781.319
767.037	775.872
767.165	785.000
767.293	818.851
767.421	753.170
767.549	755.957
767.677	768.830
767.805	740.553
767.933	756.085
768.062	752.106
768.190	723.404
768.318	723.809
768.446	739.426
768.574	759.298
768.702	742.404
768.830	714.745
768.958	702.511
769.087	692.213
769.215	706.957
769.343	707.277
769.471	680.553
769.599	740.830
769.727	717.043
769.855	694.723
769.983	685.277
770.112	674.957
770.240	676.255
770.368	676.596
770.496	665.021
770.624	666.340
770.752	685.255
770.880	702.957
771.008	663.489
771.137	652.894
771.265	694.979
771.393	670.511
771.521	663.702
771.649	641.872
771.777	641.085
771.905	643.936
772.033	642.255
772.162	648.617
772.290	634.468
772.418	689.809
772.546	649.149
772.674	624.468
772.802	637.830
772.930	670.213
773.058	621.915
773.187	631.660
773.315	611.426
773.443	627.170
773.571	623.979
773.699	605.468
773.827	597.809
773.955	642.489
774.083	619.979
774.212	597.745
774.340	635.936
774.468	591.277
774.596	598.298
774.724	588.553
774.852	600.787
774.980	594.277
775.108	584.617
775.237	586.660
775.365	596.383
775.493	574.447
775.621	582.255
775.749	584.745
775.877	563.447
776.005	582.936
776.133	593.809
776.262	581.383
776.390	553.851
776.518	604.638
776.646	561.745
776.774	573.638
776.902	562.426
777.030	560.170
777.158	554.149
777.287	570.511
777.415	537.638
777.543	532.702
777.671	539.638
777.799	531.000
777.927	539.447
778.055	556.830
778.183	539.255
778.312	517.553
778.440	525.596
778.568	537.128
778.696	521.745
778.824	545.723
778.952	533.574
779.080	518.298
779.208	543.234
779.337	530.596
779.465	518.234
779.593	520.574
779.721	522.681
779.849	524.213
779.977	507.638
780.105	500.277
780.233	527.383
780.362	533.745
780.490	536.574
780.618	501.915
780.746	509.000
780.874	493.830
781.002	494.894
781.130	489.213
781.258	476.766
781.387	491.638
781.515	506.340
781.643	477.447
781.771	521.787
781.899	483.106
782.027	528.000
782.155	493.298
782.283	479.936
782.412	474.298
782.540	472.957
782.668	503.957
782.796	455.426
782.924	497.660
783.052	457.702
783.180	494.085
783.308	460.383
783.437	467.574
783.565	461.787
783.693	466.149
783.821	465.979
783.949	454.745
784.077	484.298
784.205	448.468
784.333	499.766
784.462	428.213
784.590	456.085
784.718	458.660
784.846	436.574
784.974	457.596
785.102	482.787
785.230	444.255
785.358	492.723
785.487	442.340
785.615	455.426
785.743	443.128
785.871	442.383
785.999	431.745
786.127	425.085
786.255	441.064
786.383	457.809
786.512	454.340
786.640	432.362
786.768	446.426
786.896	425.106
787.024	419.340
787.152	421.277
787.280	430.298
787.408	411.596
787.537	437.787
787.665	416.553
787.793	446.064
787.921	419.745
788.049	427.809
788.177	405.404
788.305	407.404
788.433	440.128
788.562	395.213
788.690	396.574
788.818	409.170
788.946	419.553
789.074	398.213
789.202	417.957
789.330	419.702
789.458	396.149
789.587	455.213
789.715	404.681
789.843	404.979
789.971	394.809
790.099	397.979
790.227	405.447
790.355	387.277
790.483	414.894
790.612	395.596
790.740	398.404
790.868	406.298
790.996	394.766
791.124	397.872
791.252	388.702
791.380	399.383
791.508	390.638
791.637	383.191
791.765	380.106
791.893	380.957
792.021	381.277
792.149	384.766
792.277	387.872
792.405	363.638
792.533	394.617
792.662	355.319
792.790	369.489
792.918	396.979
793.046	372.021
793.174	387.064
793.302	379.149
793.430	378.617
793.558	368.957
793.687	374.745
793.815	370.447
793.943	385.660
794.071	388.979
794.199	360.511
794.327	383.298
794.455	442.851
794.583	466.511
794.712	359.234
794.840	374.532
794.968	367.234
795.096	381.702
795.224	350.660
795.352	351.021
795.480	393.404
795.608	370.553
795.737	365.745
795.865	360.766
795.993	344.447
796.121	335.149
796.249	357.277
796.377	365.596
796.505	363.106
796.633	342.511
796.762	354.319
796.890	362.489
797.018	371.277
797.146	343.043
797.274	329.979
797.402	345.809
797.530	360.532
797.658	344.383
797.787	385.170
797.915	342.149
798.043	356.255
798.171	332.085
798.299	343.213
798.427	331.021
798.555	341.447
798.683	322.234
798.812	336.681
798.940	398.553
799.068	331.128
799.196	369.617
799.324	323.681
799.452	340.660
799.580	317.298
799.708	379.894
799.837	323.298
799.965	320.128
800.093	342.468
800.221	301.298
800.349	332.447
800.477	324.319
800.605	331.213
800.733	334.447
800.862	332.128
800.990	360.128
801.118	312.957
801.246	311.894
801.374	330.553
801.502	321.340
801.630	309.298
801.758	323.383
801.887	335.894
802.015	322.255
802.143	303.106
802.271	334.915
802.399	319.277
802.527	303.894
802.655	340.638
802.783	354.149
802.912	319.660
803.040	314.426
803.168	299.617
803.296	293.894
803.424	320.489
803.552	307.468
803.680	302.723
803.808	316.064
803.937	309.979
804.065	294.426
804.193	306.340
804.321	355.213
804.449	286.511
804.577	306.213
804.705	310.936
804.833	330.447
804.962	292.362
805.090	297.106
805.218	316.681
805.346	306.362
805.474	316.447
805.602	322.021
805.730	295.234
805.858	284.064
805.987	307.617
806.115	304.362
806.243	303.255
806.371	328.106
806.499	401.043
806.627	429.745
806.755	392.596
806.883	309.128
807.012	293.319
807.140	310.681
807.268	305.000
807.396	314.851
807.524	284.681
807.652	289.872
807.780	356.106
807.908	291.277
808.037	330.532
808.165	318.021
808.293	299.787
808.421	343.000
808.549	282.191
808.677	287.213
808.805	327.723
808.933	293.319
809.062	305.660
809.190	346.085
809.318	290.298
809.446	288.404
809.574	346.234
809.702	282.745
809.830	294.787
809.958	299.702
810.087	287.894
810.215	313.957
810.343	303.638
810.471	292.468
810.599	283.255
810.727	284.234
810.855	270.660
810.983	274.766
811.112	291.532
811.240	284.830
811.368	294.936
811.496	319.277
811.624	291.021
811.752	276.511
811.880	286.766
812.008	266.957
812.137	301.787
812.265	265.255
812.393	297.574
812.521	299.596
812.649	282.043
812.777	276.255
812.905	311.809
813.033	268.191
813.162	268.532
813.290	274.830
813.418	286.106
813.546	273.702
813.674	268.809
813.802	287.681
813.930	258.936
814.058	265.702
814.187	281.915
814.315	273.170
814.443	279.596
814.571	294.787
814.699	295.298
814.827	274.362
814.955	265.021
815.083	298.936
815.212	293.915
815.340	312.383
815.468	262.319
815.596	276.426
815.724	288.447
815.852	263.128
815.980	270.277
816.108	267.340
816.237	262.936
816.365	281.957
816.493	279.766
816.621	262.745
816.749	278.128
816.877	281.830
817.005	289.702
817.133	278.319
817.262	258.255
817.390	270.638
817.518	266.787
817.646	276.851
817.774	264.149
817.902	264.851
818.030	265.362
818.158	294.277
818.287	285.809
818.415	260.532
818.543	266.979
818.671	287.043
818.799	260.511
818.927	274.447
819.055	272.660
819.183	258.766
819.312	268.830
819.440	253.426
819.568	262.872
819.696	269.213
819.824	271.617
819.952	256.404
820.080	270.489
820.208	261.383
820.337	251.404
820.465	296.723
820.593	263.191
820.721	257.681
820.849	272.319
820.977	262.702
821.105	266.915
821.233	239.766
821.362	279.511
821.490	246.319
821.618	249.255
821.746	252.723
821.874	256.234
822.002	255.702
822.130	257.745
822.258	243.149
822.387	249.021
822.515	275.596
822.643	267.298
822.771	265.340
822.899	262.085
823.027	300.979
823.155	243.915
823.283	242.362
823.412	262.830
823.540	253.106
823.668	298.191
823.796	251.511
823.924	281.213
824.052	288.000
824.180	269.894
824.308	245.702
824.437	250.170
824.565	250.638
824.693	274.064
824.821	261.936
824.949	266.872
825.077	252.426
825.205	289.128
825.333	268.170
825.462	282.383
825.590	264.043
825.718	277.745
825.846	255.021
825.974	239.298
826.102	249.894
826.230	244.277
826.358	249.106
826.487	241.638
826.615	284.000
826.743	240.447
826.871	270.000
826.999	302.787
827.127	255.128
827.255	258.128
827.383	247.277
827.512	267.915
827.640	242.915
827.768	235.043
827.896	257.787
828.024	242.660
828.152	247.957
828.280	250.489
828.408	235.277
828.537	247.468
828.665	262.340
828.793	254.766
828.921	237.894
829.049	258.000
829.177	243.000
829.305	242.702
829.433	252.830
829.562	262.681
829.690	242.787
829.818	275.553
829.946	242.021
830.074	251.383
830.202	263.426
830.330	263.085
830.458	287.255
830.587	239.830
830.715	243.489
830.843	244.319
830.971	252.702
831.099	270.170
831.227	238.723
831.355	237.255
831.483	251.957
831.612	274.213
831.740	244.489
831.868	252.000
831.996	242.872
832.124	241.489
832.252	230.766
832.380	250.745
832.508	301.574
832.637	243.638
832.765	248.298
832.893	267.383
833.021	229.809
833.149	239.298
833.277	250.532
833.405	238.149
833.533	235.489
833.662	240.915
833.790	236.617
833.918	251.489
834.046	285.830
834.174	250.085
834.302	239.979
834.430	229.298
834.558	239.106
834.687	258.830
834.815	229.298
834.943	243.085
835.071	244.596
835.199	244.255
835.327	265.468
835.455	237.468
835.583	274.298
835.712	232.000
835.840	234.149
835.968	240.787
836.096	286.979
836.224	256.702
836.352	226.830
836.480	248.106
836.608	251.404
836.737	231.085
836.865	234.766
836.993	244.596
837.121	247.149
837.249	235.957
837.377	261.809
837.505	249.851
837.633	239.191
837.762	231.574
837.890	265.830
838.018	273.468
838.146	285.064
838.274	253.915
838.402	263.128
838.530	237.277
838.658	227.511
838.787	242.277
838.915	248.000
839.043	224.043
839.171	265.660
839.299	230.277
839.427	237.362
839.555	244.106
839.683	257.638
839.812	268.468
839.940	228.489
840.068	247.468
840.196	251.553
840.324	237.894
840.452	238.660
840.580	274.149
840.708	246.766
840.837	273.255
840.965	234.830
841.093	245.809
841.221	235.447
841.349	239.213
841.477	253.404
841.605	248.213
841.733	237.213
841.862	244.277
841.990	285.511
842.118	224.936
842.246	235.234
842.374	235.957
842.502	219.468
842.630	250.298
842.758	257.426
842.887	227.043
843.015	241.340
843.143	259.553
843.271	235.277
843.399	273.128
843.527	246.915
843.655	223.745
843.783	234.298
843.912	233.660
844.040	268.936
844.168	229.809
844.296	230.383
844.424	227.319
844.552	245.723
844.680	251.894
844.808	256.064
844.937	238.383
845.065	231.532
845.193	255.681
845.321	239.553
845.449	233.894
845.577	235.766
845.705	237.489
845.833	228.787
845.962	243.064
846.090	229.447
846.218	238.894
846.346	243.894
846.474	245.894
846.602	241.723
846.730	265.362
846.858	250.447
846.987	234.383
847.115	225.021
847.243	254.362
847.371	250.766
847.499	251.468
847.627	229.957
847.755	224.638
847.883	242.979
848.012	249.000
848.140	233.468
848.268	254.957
848.396	228.404
848.524	255.532
848.652	212.447
848.780	234.404
848.908	239.830
849.037	229.936
849.165	242.319
849.293	244.064
849.421	258.979
849.549	238.277
849.677	238.872
849.805	243.979
849.933	240.191
850.062	231.830
850.190	233.596
850.318	245.872
850.446	224.532
850.574	225.617
850.702	234.149
850.830	235.255
850.958	247.468
851.087	216.021
851.215	235.617
851.343	233.809
851.471	226.787
851.599	243.298
851.727	234.787
851.855	283.021
851.983	243.894
852.112	236.936
852.240	223.830
852.368	232.340
852.496	232.106
852.624	226.830
852.752	236.298
852.880	210.106
853.008	237.064
853.137	241.511
853.265	248.915
853.393	233.128
853.521	249.404
853.649	242.277
853.777	226.596
853.905	244.532
854.033	227.638
854.162	293.255
854.290	231.170
854.418	217.638
854.546	226.043
854.674	328.787
854.802	236.702
854.930	220.745
855.058	208.702
855.187	223.532
855.315	253.745
855.443	214.106
855.571	226.043
855.699	225.021
855.827	227.362
855.955	231.298
856.083	232.638
856.212	240.745
856.340	221.404
856.468	270.574
856.596	249.404
856.724	234.809
856.852	232.723
856.980	224.872
857.108	239.638
857.237	223.574
857.365	257.574
857.493	230.574
857.621	221.128
857.749	238.787
857.877	249.426
858.005	250.894
858.133	228.404
858.262	230.787
858.390	230.574
858.518	210.936
858.646	217.660
858.774	226.128
858.902	205.043
859.030	224.638
859.158	235.213
859.287	240.574
859.415	258.809
859.543	220.553
859.671	218.064
859.799	247.213
859.927	239.489
860.055	228.468
860.183	241.383
860.312	227.149
860.440	232.447
860.568	229.255
860.696	213.553
860.824	290.574
860.952	274.574
861.080	235.191
861.208	234.936
861.337	237.957
861.465	261.553
861.593	261.085
861.721	224.000
861.849	224.383
861.977	216.149
862.105	238.128
862.233	258.596
862.362	241.447
862.490	253.894
862.618	222.660
862.746	231.277
862.874	225.745
863.002	224.043
863.130	260.277
863.258	233.106
863.387	250.106
863.515	248.277
863.643	236.617
863.771	301.872
863.899	233.617
864.027	218.851
864.155	216.021
864.283	248.298
864.412	225.702
864.540	220.660
864.668	216.915
864.796	232.596
864.924	231.702
865.052	234.404
865.180	221.106
865.308	206.957
865.437	232.979
865.565	232.787
865.693	261.468
865.821	240.319
865.949	252.596
866.077	232.319
866.205	244.596
866.333	248.170
866.462	220.362
866.590	230.638
866.718	241.255
866.846	228.128
866.974	244.745
867.102	241.723
867.230	263.277
867.358	231.064
867.487	222.021
867.615	250.894
867.743	235.064
867.871	235.830
867.999	232.660
868.127	226.638
868.255	282.128
868.383	276.617
868.512	223.319
868.640	225.043
868.768	216.681
868.896	219.660
869.024	255.936
869.152	227.596
869.280	231.447
869.408	263.340
869.537	228.809
869.665	296.277
869.793	221.787
869.921	263.085
870.049	241.298
870.177	235.553
870.305	272.128
870.433	212.426
870.562	241.787
870.690	213.957
870.818	222.362
870.946	233.149
871.074	266.043
871.202	240.681
871.330	252.830
871.458	208.553
871.587	228.702
871.715	237.362
871.843	221.404
871.971	219.638
872.099	228.255
872.227	228.043
872.355	242.532
872.483	235.532
872.612	239.574
872.740	237.149
872.868	224.723
872.996	233.851
873.124	225.128
873.252	227.191
873.380	226.043
873.508	218.809
873.637	241.298
873.765	227.468
873.893	280.851
874.021	229.723
874.149	223.298
874.277	235.255
874.405	222.255
874.533	231.745
874.662	1130.809
874.790	233.362
874.918	261.723
875.046	246.170
875.174	243.064
875.302	212.106
875.430	262.723
875.558	244.681
875.687	240.511
875.815	232.660
875.943	224.085
876.071	242.043
876.199	254.596
876.327	264.319
876.455	233.149
876.583	250.532
876.712	229.426
876.840	236.851
876.968	272.617
877.096	221.723
877.224	217.149
877.352	280.574
877.480	219.447
877.608	230.340
877.737	244.426
877.865	228.574
877.993	246.085
878.121	208.149
878.249	221.574
878.377	224.723
878.505	229.000
878.633	232.745
878.762	232.340
878.890	221.574
879.018	288.638
879.146	236.213
879.274	214.149
879.402	251.255
879.530	238.191
879.658	221.511
879.787	225.638
879.915	225.319
880.043	258.553
880.171	211.809
880.299	244.234
880.427	237.021
880.555	230.106
880.683	254.234
880.812	217.979
880.940	265.957
881.068	217.830
881.196	227.745
881.324	236.702
881.452	219.447
881.580	249.553
881.708	248.553
881.837	240.872
881.965	236.149
882.093	243.936
882.221	225.702
882.349	256.234
882.477	254.702
882.605	242.596
882.733	218.979
882.862	262.447
882.990	240.128
883.118	222.213
883.246	232.213
883.374	229.426
883.502	223.234
883.630	216.234
883.758	229.851
883.887	239.000
884.015	214.553
884.143	226.851
884.271	238.468
884.399	221.340
884.527	228.957
884.655	212.574
884.783	245.021
884.912	244.511
885.040	223.830
885.168	289.660
885.296	227.723
885.424	238.660
885.552	249.191
885.680	231.957
885.808	221.149
885.937	240.234
886.065	241.681
886.193	217.191
886.321	269.213
886.449	217.553
886.577	277.191
886.705	224.362
886.833	222.128
886.962	218.872
887.090	228.170
887.218	229.447
887.346	240.362
887.474	265.340
887.602	241.255
887.730	234.872
887.858	256.809
887.987	226.638
888.115	271.532
888.243	238.872
888.371	240.511
888.499	217.660
888.627	237.787
888.755	242.681
888.883	233.255
889.012	222.149
889.140	231.362
889.268	245.191
889.396	234.681
889.524	231.894
889.652	222.745
889.780	213.574
889.908	251.702
890.037	219.213
890.165	223.021
890.293	257.149
890.421	276.340
890.549	239.681
890.677	229.404
890.805	219.128
890.933	254.489
891.062	230.043
891.190	224.957
891.318	234.681
891.446	229.468
891.574	216.894
891.702	231.702
891.830	234.489
891.958	260.319
892.087	264.255
892.215	242.298
892.343	235.489
892.471	243.511
892.599	230.170
892.727	250.702
892.855	222.128
892.983	217.681
893.112	227.447
893.240	214.489
893.368	261.532
893.496	225.106
893.624	238.745
893.752	286.000
893.880	270.404
894.008	214.489
894.137	239.213
894.265	235.553
894.393	231.319
894.521	226.447
894.649	252.872
894.777	229.596
894.905	214.064
895.033	269.596
895.162	228.681
895.290	266.191
895.418	241.064
895.546	248.064
895.674	308.106
895.802	225.702
895.930	245.277
896.058	210.447
896.187	219.383
896.315	224.702
896.443	221.298
896.571	229.489
896.699	233.936
896.827	240.298
896.955	232.745
897.083	218.617
897.212	255.894
897.340	228.702
897.468	210.574
897.596	224.064
897.724	270.957
897.852	237.957
897.980	230.021
898.108	236.149
898.237	224.000
898.365	217.298
898.493	232.213
898.621	236.532
898.749	234.553
898.877	236.638
899.005	211.191
899.133	227.723
899.262	234.617
899.390	263.043
899.518	231.553
899.646	231.362
899.774	250.021
899.902	304.745
900.030	239.660
900.158	231.234
900.287	245.234
900.415	209.830
900.543	240.702
900.671	232.149
900.799	257.319
900.927	224.362
901.055	224.128
901.183	236.213
901.312	254.532
901.440	245.511
901.568	244.638
901.696	231.340
901.824	243.128
901.952	248.319
902.080	348.745
902.208	259.936
902.337	229.489
902.465	237.745
902.593	228.745
902.721	230.170
902.849	237.787
902.977	246.553
903.105	226.638
903.233	245.660
903.362	233.872
903.490	243.787
903.618	223.745
903.746	249.723
903.874	223.021
904.002	240.426
904.130	242.638
904.258	251.404
904.387	226.255
904.515	253.894
904.643	218.085
904.771	227.043
904.899	243.787
905.027	257.234
905.155	240.596
905.283	230.213
905.412	261.191
905.540	234.766
905.668	228.617
905.796	229.170
905.924	236.298
906.052	234.085
906.180	252.426
906.308	239.319
906.437	259.617
906.565	234.745
906.693	241.149
906.821	218.362
906.949	238.809
907.077	248.702
907.205	243.915
907.333	239.617
907.462	227.362
907.590	224.660
907.718	249.021
907.846	275.851
907.974	223.660
908.102	236.979
908.230	264.468
908.358	279.574
908.487	239.915
908.615	247.638
908.743	249.404
908.871	292.234
908.999	240.340
909.127	260.468
909.255	216.340
909.383	232.936
909.512	267.851
909.640	238.255
909.768	237.979
909.896	291.830
910.024	262.511
910.152	245.404
910.280	285.362
910.408	237.149
910.537	235.617
910.665	272.681
910.793	238.979
910.921	260.000
911.049	229.872
911.177	225.000
911.305	260.894
911.433	247.596
911.562	242.830
911.690	244.064
911.818	296.277
911.946	235.979
912.074	258.000
912.202	278.255
912.330	238.149
912.458	243.234
912.587	263.149
912.715	265.766
912.843	266.383
912.971	258.660
913.099	272.383
913.227	266.149
913.355	246.085
913.483	265.298
913.612	264.170
913.740	375.617
913.868	255.383
