0pol_90_140_at_750.00nm_cut_at_984.50Y_01.dat
24.04.2023
10:46:35
cut middle at Y: 984.50
top cursor: 1008 down cursor: 961 mean of: 47 lines , 2560 datapoints
wavelength(nm)	intensity[arb. units]
585.996	11481.489
586.124	11238.532
586.252	11132.511
586.380	11189.851
586.508	11245.213
586.637	11307.681
586.765	11395.468
586.893	11355.894
587.021	11415.468
587.149	11484.170
587.277	11418.319
587.405	11539.574
587.533	11431.596
587.662	11569.936
587.790	11587.404
587.918	11457.362
588.046	11521.149
588.174	11423.170
588.302	11513.298
588.430	11480.128
588.558	11464.234
588.687	11464.404
588.815	11471.915
588.943	11447.936
589.071	11451.234
589.199	11502.021
589.327	11447.617
589.455	11451.277
589.583	11520.617
589.712	11508.383
589.840	11443.936
589.968	11478.426
590.096	11471.021
590.224	11492.468
590.352	11430.702
590.480	11514.596
590.608	11502.213
590.737	11530.149
590.865	11596.213
590.993	11535.362
591.121	11545.617
591.249	11566.787
591.377	11518.596
591.505	11546.681
591.633	11570.872
591.762	11521.468
591.890	11685.894
592.018	11526.660
592.146	11493.468
592.274	11520.638
592.402	11542.745
592.530	11588.298
592.658	11803.426
592.787	11649.766
592.915	11799.404
593.043	11645.830
593.171	11723.574
593.299	11750.596
593.427	11744.255
593.555	11801.638
593.683	11805.596
593.812	11793.234
593.940	11820.745
594.068	11858.936
594.196	11921.745
594.324	11934.468
594.452	11938.468
594.580	11968.000
594.708	11948.894
594.837	11934.362
594.965	12081.128
595.093	12096.723
595.221	12087.319
595.349	12246.468
595.477	12185.553
595.605	12132.298
595.733	12186.064
595.862	12410.319
595.990	12168.021
596.118	12226.319
596.246	12402.043
596.374	12288.723
596.502	12310.277
596.630	12310.638
596.758	12300.128
596.887	12332.064
597.015	12303.851
597.143	12302.489
597.271	12309.128
597.399	12311.468
597.527	12339.128
597.655	12307.787
597.783	12257.872
597.912	12292.532
598.040	12289.532
598.168	12399.404
598.296	12293.277
598.424	12331.596
598.552	12290.617
598.680	12255.468
598.808	12378.426
598.937	12318.553
599.065	12255.000
599.193	12380.021
599.321	12376.298
599.449	12308.426
599.577	12255.298
599.705	12336.787
599.833	12275.319
599.962	12227.404
600.090	12343.702
600.218	12370.149
600.346	12395.128
600.474	12319.511
600.602	12346.340
600.730	12391.489
600.858	12440.213
600.987	12559.574
601.115	12459.043
601.243	12457.213
601.371	12496.574
601.499	12569.809
601.627	12590.574
601.755	12587.404
601.883	12699.043
602.012	12725.043
602.140	12661.128
602.268	12803.787
602.396	12754.128
602.524	12885.553
602.652	12785.404
602.780	12843.426
602.908	12879.660
603.037	12908.766
603.165	12931.255
603.293	12979.702
603.421	13014.404
603.549	13096.340
603.677	13184.511
603.805	13122.809
603.933	13187.787
604.062	13254.404
604.190	13252.191
604.318	13267.234
604.446	13277.511
604.574	13339.340
604.702	13345.809
604.830	13393.447
604.958	13437.362
605.087	13446.468
605.215	13426.128
605.343	13457.872
605.471	13526.085
605.599	13593.809
605.727	13563.830
605.855	13623.362
605.983	13563.426
606.112	13608.617
606.240	13592.723
606.368	13634.021
606.496	13816.064
606.624	13637.638
606.752	13666.277
606.880	13770.851
607.008	13900.596
607.137	13833.404
607.265	13632.894
607.393	13673.489
607.521	13773.085
607.649	13718.404
607.777	13658.043
607.905	13710.106
608.033	13735.383
608.162	13676.723
608.290	13704.234
608.418	13672.979
608.546	13692.362
608.674	13730.638
608.802	13664.404
608.930	13644.128
609.058	13687.319
609.187	13752.383
609.315	13764.851
609.443	13656.447
609.571	13731.596
609.699	13665.043
609.827	13699.957
609.955	13681.468
610.083	13612.362
610.212	13598.574
610.340	13601.660
610.468	13729.766
610.596	13683.511
610.724	13670.872
610.852	13618.128
610.980	13633.362
611.108	13731.277
611.237	13605.936
611.365	13687.191
611.493	13536.638
611.621	13634.191
611.749	13692.489
611.877	13737.766
612.005	13740.574
612.133	13802.702
612.262	13784.170
612.390	13824.298
612.518	13808.766
612.646	13906.787
612.774	13884.723
612.902	13911.319
613.030	13899.404
613.158	14084.170
613.287	14009.383
613.415	13988.234
613.543	13948.128
613.671	13948.447
613.799	14053.298
613.927	13932.766
614.055	13981.830
614.183	14122.702
614.312	14009.043
614.440	14117.787
614.568	14080.277
614.696	14119.064
614.824	14321.511
614.952	14208.872
615.080	14188.915
615.208	14238.617
615.337	14286.000
615.465	14361.021
615.593	14445.447
615.721	14620.809
615.849	14592.553
615.977	14616.894
616.105	14549.340
616.233	14565.489
616.362	14646.851
616.490	14551.745
616.618	14650.894
616.746	14678.979
616.874	14718.553
617.002	14687.851
617.130	14694.511
617.258	14844.553
617.387	14724.830
617.515	14670.809
617.643	14678.596
617.771	14699.574
617.899	14753.128
618.027	14743.064
618.155	14827.936
618.283	14717.000
618.412	14811.106
618.540	14789.766
618.668	14772.106
618.796	14765.851
618.924	14905.170
619.052	14744.574
619.180	14774.872
619.308	14797.553
619.437	14755.213
619.565	14741.723
619.693	14714.149
619.821	14692.660
619.949	14715.000
620.077	14765.638
620.205	14786.426
620.333	14745.149
620.462	14778.000
620.590	14828.851
620.718	14638.277
620.846	14771.213
620.974	14719.830
621.102	14723.383
621.230	14666.766
621.358	14838.149
621.487	14636.319
621.615	14694.638
621.743	14707.000
621.871	14682.128
621.999	14702.043
622.127	14586.617
622.255	14628.851
622.383	14575.532
622.512	14563.447
622.640	14811.170
622.768	14566.340
622.896	14609.787
623.024	14595.702
623.152	14698.787
623.280	14634.362
623.408	14502.745
623.537	14590.596
623.665	14459.681
623.793	14547.383
623.921	14509.553
624.049	14489.936
624.177	14459.957
624.305	14489.766
624.433	14515.064
624.562	14536.894
624.690	14517.383
624.818	14556.532
624.946	14644.085
625.074	14530.468
625.202	14476.106
625.330	14459.106
625.458	14542.128
625.587	14480.872
625.715	14473.404
625.843	14635.191
625.971	14534.723
626.099	14577.915
626.227	14490.021
626.355	14471.702
626.483	14602.596
626.612	14476.170
626.740	14514.957
626.868	14535.809
626.996	14494.723
627.124	14470.723
627.252	14511.872
627.380	14603.787
627.508	14584.936
627.637	14500.213
627.765	14538.021
627.893	14624.766
628.021	14627.362
628.149	14890.894
628.277	14962.745
628.405	14911.043
628.533	14638.787
628.662	14666.574
628.790	14620.468
628.918	14761.894
629.046	14724.447
629.174	14848.128
629.302	15055.766
629.430	14863.128
629.558	14768.596
629.687	14776.660
629.815	14778.830
629.943	14810.660
630.071	14825.766
630.199	14867.851
630.327	14829.106
630.455	14843.170
630.583	14984.553
630.712	14886.447
630.840	14955.128
630.968	14967.617
631.096	14866.511
631.224	14920.255
631.352	14922.043
631.480	14952.128
631.608	14991.766
631.737	15094.979
631.865	15121.043
631.993	14958.191
632.121	15118.149
632.249	15077.894
632.377	14992.830
632.505	15046.426
632.633	14856.702
632.762	14928.830
632.890	15006.766
633.018	14803.255
633.146	14941.298
633.274	14822.830
633.402	14896.830
633.530	14785.340
633.658	14940.362
633.787	14759.766
633.915	14802.872
634.043	14720.851
634.171	14741.404
634.299	14715.617
634.427	14716.596
634.555	14695.426
634.683	14606.000
634.812	14639.851
634.940	14569.000
635.068	14527.596
635.196	14524.191
635.324	14478.064
635.452	14553.277
635.580	14389.809
635.708	14417.277
635.837	14357.000
635.965	14340.106
636.093	14259.277
636.221	14252.745
636.349	14336.383
636.477	14227.915
636.605	14355.957
636.733	14106.383
636.862	14104.936
636.990	14111.936
637.118	14072.191
637.246	14099.255
637.374	13962.213
637.502	14002.362
637.630	13925.383
637.758	13933.383
637.887	13889.511
638.015	13817.851
638.143	13845.149
638.271	13796.511
638.399	13770.277
638.527	13721.191
638.655	13749.830
638.783	13872.043
638.912	13724.553
639.040	13712.660
639.168	13726.511
639.296	13643.149
639.424	13784.574
639.552	13641.702
639.680	13804.128
639.808	13659.489
639.937	13613.532
640.065	13626.787
640.193	13696.298
640.321	13620.638
640.449	13635.128
640.577	13641.064
640.705	13550.149
640.833	13708.511
640.962	13600.277
641.090	13593.064
641.218	13563.872
641.346	13569.957
641.474	13630.404
641.602	13553.660
641.730	13578.809
641.858	13603.979
641.987	13620.064
642.115	13616.936
642.243	13605.766
642.371	13593.489
642.499	13590.745
642.627	13667.809
642.755	13692.809
642.883	13698.277
643.012	13620.340
643.140	13627.745
643.268	13635.617
643.396	13627.681
643.524	13739.128
643.652	13613.085
643.780	13572.170
643.908	13602.532
644.037	13669.638
644.165	13606.532
644.293	13596.894
644.421	13589.553
644.549	13638.043
644.677	13549.362
644.805	13533.170
644.933	13473.064
645.062	13454.596
645.190	13525.000
645.318	13549.936
645.446	13511.340
645.574	13526.213
645.702	13398.447
645.830	13659.532
645.958	13407.447
646.087	13629.851
646.215	13361.298
646.343	13554.872
646.471	13404.489
646.599	13387.596
646.727	13373.340
646.855	13312.064
646.983	13289.957
647.112	13287.085
647.240	13407.532
647.368	13258.000
647.496	13226.170
647.624	13138.213
647.752	13116.191
647.880	13127.277
648.008	13092.872
648.137	13070.021
648.265	13035.404
648.393	13031.298
648.521	13012.170
648.649	12937.426
648.777	12960.617
648.905	12816.340
649.033	12835.234
649.162	12810.511
649.290	12821.043
649.418	12765.021
649.546	12741.021
649.674	12714.319
649.802	12649.340
649.930	12774.957
650.058	12569.957
650.187	12558.277
650.315	12529.319
650.443	12610.702
650.571	12484.553
650.699	12533.255
650.827	12404.894
650.955	12467.447
651.083	12424.553
651.212	12414.362
651.340	12423.957
651.468	12347.043
651.596	12268.979
651.724	12286.298
651.852	12273.872
651.980	12207.170
652.108	12315.702
652.237	12209.277
652.365	12255.766
652.493	12174.617
652.621	12109.745
652.749	12164.766
652.877	12029.426
653.005	12083.404
653.133	12033.957
653.262	12067.170
653.390	11979.255
653.518	12088.255
653.646	11984.106
653.774	12082.660
653.902	11901.447
654.030	11902.426
654.158	11779.128
654.287	11830.489
654.415	11773.468
654.543	11850.723
654.671	11793.213
654.799	11752.064
654.927	11631.809
655.055	11697.106
655.183	11661.787
655.312	11674.489
655.440	11659.574
655.568	11559.979
655.696	11634.809
655.824	11664.447
655.952	11583.702
656.080	11463.979
656.208	11574.532
656.337	11434.298
656.465	11403.766
656.593	11455.085
656.721	11331.277
656.849	11377.979
656.977	11298.745
657.105	11273.936
657.233	11205.681
657.362	11180.426
657.490	11098.362
657.618	11117.723
657.746	11116.234
657.874	11024.340
658.002	11054.766
658.130	10989.574
658.258	10960.426
658.387	10974.617
658.515	10957.468
658.643	10960.638
658.771	10899.809
658.899	10890.766
659.027	10863.851
659.155	10840.319
659.283	10990.894
659.412	10713.830
659.540	10863.596
659.668	10728.745
659.796	10704.298
659.924	10721.553
660.052	10650.085
660.180	10634.170
660.308	10577.383
660.437	10610.213
660.565	10579.447
660.693	10522.426
660.821	10486.106
660.949	10513.617
661.077	10471.957
661.205	10448.319
661.333	10468.915
661.462	10498.319
661.590	10460.234
661.718	10576.851
661.846	10444.340
661.974	10513.702
662.102	10336.532
662.230	10360.043
662.358	10277.915
662.487	10307.404
662.615	10281.106
662.743	10209.213
662.871	10218.213
662.999	10175.255
663.127	10167.170
663.255	10292.064
663.383	10255.574
663.512	10140.383
663.640	10236.106
663.768	10163.957
663.896	10180.809
664.024	10176.596
664.152	10151.745
664.280	10174.213
664.408	10169.936
664.537	10173.851
664.665	10109.787
664.793	10031.362
664.921	10006.809
665.049	10029.255
665.177	10018.553
665.305	10002.319
665.433	9965.894
665.562	9943.213
665.690	9945.638
665.818	10094.234
665.946	9968.638
666.074	9897.894
666.202	9914.106
666.330	9924.319
666.458	9862.638
666.587	9806.149
666.715	9818.723
666.843	9833.553
666.971	9774.426
667.099	9806.511
667.227	9771.745
667.355	9754.170
667.483	9750.511
667.612	9723.106
667.740	9740.660
667.868	9763.319
667.996	9707.894
668.124	9624.404
668.252	9623.149
668.380	9652.213
668.508	9585.660
668.637	9652.128
668.765	9552.000
668.893	9604.383
669.021	9515.723
669.149	9555.915
669.277	9542.213
669.405	9447.617
669.533	9527.213
669.662	9692.532
669.790	9530.830
669.918	9516.064
670.046	9415.617
670.174	9498.830
670.302	9442.426
670.430	9376.298
670.558	9427.064
670.687	9342.383
670.815	9476.809
670.943	9297.830
671.071	9272.085
671.199	9273.617
671.327	9244.979
671.455	9176.149
671.583	9205.277
671.712	9279.723
671.840	9171.660
671.968	9103.043
672.096	9064.489
672.224	9073.234
672.352	9169.936
672.480	9014.021
672.608	8903.234
672.737	8902.915
672.865	9044.426
672.993	8869.255
673.121	8787.596
673.249	8756.489
673.377	8754.319
673.505	8707.213
673.633	8679.957
673.762	8629.277
673.890	8624.809
674.018	8909.191
674.146	8581.979
674.274	8583.681
674.402	8712.340
674.530	8567.681
674.658	8476.532
674.787	8450.149
674.915	8413.404
675.043	8491.085
675.171	8399.489
675.299	8301.255
675.427	8333.702
675.555	8247.277
675.683	8247.809
675.812	8213.660
675.940	8217.979
676.068	8133.277
676.196	8120.426
676.324	8132.596
676.452	8052.957
676.580	7978.234
676.708	8026.723
676.837	8045.766
676.965	7959.638
677.093	7912.766
677.221	7849.489
677.349	7918.213
677.477	7926.702
677.605	7854.681
677.733	7856.447
677.862	7703.021
677.990	7701.723
678.118	7718.957
678.246	7699.170
678.374	7671.809
678.502	7616.277
678.630	7604.362
678.758	7577.830
678.887	7561.745
679.015	7553.830
679.143	7524.213
679.271	7504.660
679.399	7500.319
679.527	7448.426
679.655	7399.936
679.783	7464.383
679.912	7458.617
680.040	7437.426
680.168	7376.426
680.296	7388.298
680.424	7320.872
680.552	7336.319
680.680	7387.170
680.808	7294.574
680.937	7212.617
681.065	7187.043
681.193	7240.106
681.321	7280.298
681.449	7196.234
681.577	7216.532
681.705	7215.128
681.833	7163.404
681.962	7142.553
682.090	7292.894
682.218	7097.106
682.346	7068.362
682.474	7118.532
682.602	7087.362
682.730	7119.426
682.858	6989.149
682.987	7098.128
683.115	7060.128
683.243	6968.064
683.371	6986.383
683.499	7014.915
683.627	7020.255
683.755	7006.170
683.883	7089.404
684.012	6976.596
684.140	6914.298
684.268	6882.617
684.396	6907.468
684.524	6907.574
684.652	6942.255
684.780	6853.851
684.908	6853.511
685.037	6806.766
685.165	6749.489
685.293	6760.596
685.421	6818.766
685.549	6693.319
685.677	6728.255
685.805	6862.277
685.933	6747.255
686.062	6635.489
686.190	6621.723
686.318	6650.213
686.446	6577.085
686.574	6584.745
686.702	6682.298
686.830	6547.532
686.958	6521.702
687.087	6537.574
687.215	6542.851
687.343	6491.787
687.471	6426.021
687.599	6398.277
687.727	6606.936
687.855	6414.787
687.983	6458.149
688.112	6499.915
688.240	6364.255
688.368	6334.319
688.496	6378.915
688.624	6393.489
688.752	6276.936
688.880	6316.702
689.008	6249.447
689.137	6246.766
689.265	6212.340
689.393	6176.043
689.521	6156.213
689.649	6166.000
689.777	6169.915
689.905	6082.957
690.033	6093.638
690.162	6080.979
690.290	6057.553
690.418	6039.532
690.546	6146.106
690.674	6084.660
690.802	5950.809
690.930	5984.766
691.058	6005.468
691.187	5939.234
691.315	5894.255
691.443	5996.170
691.571	5865.128
691.699	5926.766
691.827	5927.468
691.955	5825.000
692.083	5813.915
692.212	5929.149
692.340	5803.660
692.468	5813.574
692.596	5791.745
692.724	5874.532
692.852	5721.617
692.980	5791.596
693.108	5722.447
693.237	5651.851
693.365	5655.617
693.493	5596.170
693.621	5614.681
693.749	5606.085
693.877	5583.128
694.005	5660.106
694.133	5523.936
694.262	5566.383
694.390	5490.915
694.518	5512.915
694.646	5484.085
694.774	5486.511
694.902	5607.745
695.030	5535.638
695.158	5383.277
695.287	5404.660
695.415	5392.723
695.543	5362.213
695.671	5467.277
695.799	5360.553
695.927	5347.021
696.055	5294.723
696.183	5292.532
696.312	5237.787
696.440	5422.638
696.568	5367.234
696.696	5284.681
696.824	5186.660
696.952	5165.106
697.080	5207.298
697.208	5118.702
697.337	5222.362
697.465	5123.872
697.593	5076.000
697.721	5125.447
697.849	5070.255
697.977	5070.043
698.105	5113.340
698.233	5019.532
698.362	5017.830
698.490	5005.213
698.618	5012.915
698.746	5091.787
698.874	5004.170
699.002	5131.766
699.130	4932.553
699.258	4953.766
699.387	4887.787
699.515	4905.830
699.643	4868.191
699.771	4907.957
699.899	4864.745
700.027	4868.277
700.155	4765.915
700.283	4840.745
700.412	4822.000
700.540	4778.830
700.668	4800.809
700.796	4708.745
700.924	4752.723
701.052	4712.362
701.180	4822.979
701.308	4680.255
701.437	4618.702
701.565	4591.787
701.693	4580.553
701.821	4583.043
701.949	4581.021
702.077	4603.872
702.205	4511.809
702.333	4530.660
702.462	4491.830
702.590	4495.745
702.718	4426.298
702.846	4440.085
702.974	4403.660
703.102	4415.362
703.230	4506.809
703.358	4409.213
703.487	4337.723
703.615	4476.255
703.743	4327.170
703.871	4308.809
703.999	4293.809
704.127	4372.383
704.255	4168.851
704.383	4374.745
704.512	4230.043
704.640	4210.021
704.768	4093.000
704.896	4204.085
705.024	4077.064
705.152	4192.574
705.280	4090.511
705.408	4042.191
705.537	4037.426
705.665	3995.340
705.793	3968.745
705.921	3925.702
706.049	3953.383
706.177	3908.894
706.305	3927.404
706.433	4015.489
706.562	3907.574
706.690	3840.915
706.818	3832.255
706.946	4041.702
707.074	3828.043
707.202	3783.064
707.330	3830.511
707.458	3787.681
707.587	3754.766
707.715	3750.468
707.843	3768.851
707.971	3746.830
708.099	3759.298
708.227	3665.851
708.355	3665.000
708.483	3656.787
708.612	3609.255
708.740	3653.830
708.868	3697.255
708.996	3595.702
709.124	3647.830
709.252	3567.787
709.380	3529.596
709.508	3588.468
709.637	3484.404
709.765	3521.915
709.893	3520.106
710.021	3513.149
710.149	3487.936
710.277	3518.255
710.405	3442.404
710.533	3454.745
710.662	3434.191
710.790	3412.319
710.918	3421.170
711.046	3405.830
711.174	3388.191
711.302	3380.085
711.430	3478.170
711.558	3317.447
711.687	3318.468
711.815	3354.191
711.943	3303.128
712.071	3325.149
712.199	3358.383
712.327	3300.340
712.455	3244.979
712.583	3297.426
712.712	3294.979
712.840	3243.149
712.968	3237.915
713.096	3290.745
713.224	3174.553
713.352	3219.915
713.480	3157.000
713.608	3190.596
713.737	3170.660
713.865	3177.213
713.993	3217.085
714.121	3138.872
714.249	3133.000
714.377	3204.936
714.505	3141.191
714.633	3275.319
714.762	3150.213
714.890	3073.064
715.018	3103.255
715.146	3096.681
715.274	3136.340
715.402	3269.574
715.530	3147.447
715.658	3036.745
715.787	3002.809
715.915	3225.426
716.043	3005.021
716.171	3072.596
716.299	3091.766
716.427	3020.191
716.555	2982.170
716.683	2993.319
716.812	2951.064
716.940	2983.702
717.068	2908.681
717.196	3111.298
717.324	3052.617
717.452	2952.638
717.580	2894.213
717.708	2888.681
717.837	2963.468
717.965	2854.404
718.093	2900.213
718.221	2826.426
718.349	2882.532
718.477	2878.957
718.605	2906.106
718.733	2788.234
718.862	2842.404
718.990	2777.319
719.118	2785.638
719.246	2747.574
719.374	2850.128
719.502	2764.128
719.630	2909.191
719.758	2722.128
719.887	2709.298
720.015	2913.213
720.143	2668.574
720.271	2680.936
720.399	2709.106
720.527	2733.468
720.655	2746.234
720.783	2761.979
720.912	2632.149
721.040	2655.915
721.168	2622.404
721.296	2682.596
721.424	2613.213
721.552	2562.702
721.680	2553.191
721.808	2623.766
721.937	2606.830
722.065	2674.277
722.193	2680.957
722.321	2560.511
722.449	2556.170
722.577	2532.170
722.705	2519.149
722.833	2570.021
722.962	2570.191
723.090	2520.085
723.218	2513.489
723.346	2510.404
723.474	2493.277
723.602	2585.872
723.730	2563.255
723.858	2606.851
723.987	2534.511
724.115	2497.723
724.243	2509.723
724.371	2517.255
724.499	2516.596
724.627	2510.979
724.755	2478.191
724.883	2470.234
725.012	2449.085
725.140	2451.553
725.268	2444.468
725.396	2437.213
725.524	2401.915
725.652	2414.809
725.780	2396.383
725.908	2387.723
726.037	2390.787
726.165	2383.872
726.293	2318.447
726.421	2345.574
726.549	2345.766
726.677	2324.617
726.805	2345.979
726.933	2327.851
727.062	2290.872
727.190	2310.596
727.318	2279.362
727.446	2303.319
727.574	2277.936
727.702	2277.723
727.830	2251.638
727.958	2270.043
728.087	2266.404
728.215	2245.957
728.343	2228.915
728.471	2225.553
728.599	2219.106
728.727	2229.298
728.855	2208.574
728.983	2197.106
729.112	2199.340
729.240	2163.745
729.368	2178.915
729.496	2173.915
729.624	2173.298
729.752	2163.872
729.880	2159.723
730.008	2156.191
730.137	2131.362
730.265	2157.064
730.393	2119.979
730.521	2145.809
730.649	2096.255
730.777	2129.681
730.905	2076.213
731.033	2085.872
731.162	2144.191
731.290	2187.936
731.418	2130.234
731.546	2164.915
731.674	2021.489
731.802	2082.234
731.930	2051.745
732.058	2029.000
732.187	2024.872
732.315	2011.936
732.443	2018.277
732.571	2004.149
732.699	1988.553
732.827	2019.298
732.955	1986.404
733.083	1965.106
733.212	1989.106
733.340	1964.809
733.468	1975.787
733.596	1948.638
733.724	1925.660
733.852	1950.213
733.980	1935.213
734.108	1934.511
734.237	1994.957
734.365	1932.489
734.493	1952.851
734.621	1918.617
734.749	1931.915
734.877	1943.340
735.005	1910.702
735.133	1926.404
735.262	1923.404
735.390	1877.383
735.518	1900.617
735.646	1874.064
735.774	1861.936
735.902	1879.957
736.030	1848.277
736.158	1888.000
736.287	1851.170
736.415	1864.447
736.543	1828.191
736.671	1812.851
736.799	1828.723
736.927	1891.149
737.055	1830.511
737.183	1829.128
737.312	1804.468
737.440	1825.681
737.568	1841.787
737.696	1794.660
737.824	1827.064
737.952	1751.170
738.080	1754.894
738.208	1816.234
738.337	1747.936
738.465	1846.745
738.593	1746.574
738.721	1719.809
738.849	1721.340
738.977	1749.362
739.105	1723.191
739.233	1725.277
739.362	1708.085
739.490	1693.936
739.618	1680.383
739.746	1702.085
739.874	1696.723
740.002	1661.362
740.130	1675.255
740.258	1677.340
740.387	1668.787
740.515	1640.021
740.643	1641.894
740.771	1691.383
740.899	1631.149
741.027	1635.511
741.155	1683.021
741.283	1593.532
741.412	1605.617
741.540	1635.128
741.668	1588.915
741.796	1590.000
741.924	1640.723
742.052	1579.936
742.180	1573.596
742.308	1577.660
742.437	1566.213
742.565	1600.468
742.693	1599.404
742.821	1554.404
742.949	1606.362
743.077	1539.596
743.205	1549.213
743.333	1555.255
743.462	1565.596
743.590	1570.532
743.718	1522.021
743.846	1549.043
743.974	1516.234
744.102	1508.234
744.230	1527.745
744.358	1480.553
744.487	1505.532
744.615	1497.064
744.743	1493.723
744.871	1478.340
744.999	1520.170
745.127	1463.766
745.255	1455.404
745.383	1496.617
745.512	1466.340
745.640	1444.894
745.768	1460.723
745.896	1473.894
746.024	1445.468
746.152	1438.702
746.280	1440.553
746.408	1426.043
746.537	1420.000
746.665	1428.404
746.793	1432.745
746.921	1401.128
747.049	1393.745
747.177	1428.830
747.305	1432.894
747.433	1436.468
747.562	1382.021
747.690	1380.915
747.818	1377.106
747.946	1368.957
748.074	1472.106
748.202	1399.936
748.330	1371.787
748.458	1399.234
748.587	1343.362
748.715	1346.426
748.843	1351.106
748.971	1330.596
749.099	1345.915
749.227	1367.234
749.355	1329.979
749.483	1322.660
749.612	1329.277
749.740	1306.191
749.868	1305.660
749.996	1311.766
750.124	1299.106
750.252	1305.681
750.380	1311.660
750.508	1262.255
750.637	1270.553
750.765	1310.362
750.893	1267.809
751.021	1297.617
751.149	1283.170
751.277	1313.106
751.405	1307.191
751.533	1326.936
751.662	1252.489
751.790	1273.383
751.918	1239.809
752.046	1230.957
752.174	1237.383
752.302	1291.404
752.430	1229.979
752.558	1205.830
752.687	1210.830
752.815	1226.766
752.943	1199.383
753.071	1180.851
753.199	1185.149
753.327	1241.979
753.455	1203.681
753.583	1181.426
753.712	1167.915
753.840	1160.149
753.968	1145.979
754.096	1168.149
754.224	1148.191
754.352	1151.979
754.480	1159.787
754.608	1148.851
754.737	1158.362
754.865	1185.787
754.993	1136.106
755.121	1121.723
755.249	1196.957
755.377	1146.340
755.505	1121.787
755.633	1166.170
755.762	1119.000
755.890	1197.213
756.018	1171.298
756.146	1109.745
756.274	1109.383
756.402	1107.723
756.530	1113.170
756.658	1121.319
756.787	1115.383
756.915	1062.064
757.043	1117.872
757.171	1095.021
757.299	1085.489
757.427	1061.851
757.555	1060.872
757.683	1112.979
757.812	1053.830
757.940	1065.553
758.068	1033.723
758.196	1037.255
758.324	1037.085
758.452	1139.723
758.580	1027.404
758.708	1040.617
758.837	1022.043
758.965	1113.787
759.093	1012.362
759.221	983.745
759.349	1012.787
759.477	990.383
759.605	998.979
759.733	987.383
759.862	1007.766
759.990	969.213
760.118	992.787
760.246	970.532
760.374	979.979
760.502	989.766
760.630	977.255
760.758	957.851
760.887	937.404
761.015	949.574
761.143	932.106
761.271	939.383
761.399	928.043
761.527	934.383
761.655	934.617
761.783	913.106
761.912	909.362
762.040	893.574
762.168	951.277
762.296	913.660
762.424	898.170
762.552	909.170
762.680	957.255
762.808	882.638
762.937	889.894
763.065	947.957
763.193	936.830
763.321	887.809
763.449	862.064
763.577	859.489
763.705	870.447
763.833	950.660
763.962	857.085
764.090	848.872
764.218	887.532
764.346	855.340
764.474	835.447
764.602	848.213
764.730	825.702
764.858	852.128
764.987	835.532
765.115	896.489
765.243	833.106
765.371	818.106
765.499	793.957
765.627	803.915
765.755	803.021
765.883	830.426
766.012	807.957
766.140	801.468
766.268	793.574
766.396	783.596
766.524	800.340
766.652	783.702
766.780	769.894
766.908	800.872
767.037	801.872
767.165	799.617
767.293	849.064
767.421	785.106
767.549	774.340
767.677	794.021
767.805	766.383
767.933	773.383
768.062	791.830
768.190	777.128
768.318	751.319
768.446	774.106
768.574	790.000
768.702	791.362
768.830	750.000
768.958	748.553
769.087	734.362
769.215	751.404
769.343	743.851
769.471	730.936
769.599	775.213
769.727	769.170
769.855	741.766
769.983	737.532
770.112	725.851
770.240	728.404
770.368	739.809
770.496	716.234
770.624	717.979
770.752	741.638
770.880	765.745
771.008	728.213
771.137	722.383
771.265	773.043
771.393	730.468
771.521	734.106
771.649	703.830
771.777	728.638
771.905	720.979
772.033	720.979
772.162	727.255
772.290	718.128
772.418	764.851
772.546	724.447
772.674	728.191
772.802	730.128
772.930	756.170
773.058	708.596
773.187	717.681
773.315	712.043
773.443	717.106
773.571	719.979
773.699	713.617
773.827	698.936
773.955	737.213
774.083	731.723
774.212	713.809
774.340	736.043
774.468	698.106
774.596	709.574
774.724	712.660
774.852	714.298
774.980	705.638
775.108	695.170
775.237	691.809
775.365	699.574
775.493	697.362
775.621	691.000
775.749	708.872
775.877	695.489
776.005	693.170
776.133	714.362
776.262	710.830
776.390	677.638
776.518	732.957
776.646	691.340
776.774	705.596
776.902	692.489
777.030	680.979
777.158	692.936
777.287	694.362
777.415	671.809
777.543	675.213
777.671	670.426
777.799	674.574
777.927	688.000
778.055	699.213
778.183	683.532
778.312	658.596
778.440	665.404
778.568	676.064
778.696	663.894
778.824	679.915
778.952	682.809
779.080	666.872
779.208	698.894
779.337	688.872
779.465	668.617
779.593	662.957
779.721	690.617
779.849	671.277
779.977	652.872
780.105	656.298
780.233	683.085
780.362	686.553
780.490	689.596
780.618	661.809
780.746	659.426
780.874	644.574
781.002	650.043
781.130	643.638
781.258	633.213
781.387	659.213
781.515	677.234
781.643	638.574
781.771	690.596
781.899	637.021
782.027	692.213
782.155	656.213
782.283	649.128
782.412	642.553
782.540	642.277
782.668	671.809
782.796	622.851
782.924	662.723
783.052	639.830
783.180	661.085
783.308	625.362
783.437	633.979
783.565	645.021
783.693	639.872
783.821	642.404
783.949	622.319
784.077	643.064
784.205	632.170
784.333	671.957
784.462	613.872
784.590	629.277
784.718	633.362
784.846	626.532
784.974	649.702
785.102	665.702
785.230	628.043
785.358	664.511
785.487	622.596
785.615	631.894
785.743	622.681
785.871	613.532
785.999	612.404
786.127	601.362
786.255	631.957
786.383	637.340
786.512	636.468
786.640	619.617
786.768	636.851
786.896	609.234
787.024	616.979
787.152	614.872
787.280	620.277
787.408	588.043
787.537	633.511
787.665	614.404
787.793	646.660
787.921	613.170
788.049	619.553
788.177	590.915
788.305	598.213
788.433	635.021
788.562	603.426
788.690	601.766
788.818	595.532
788.946	611.128
789.074	597.596
789.202	624.106
789.330	613.064
789.458	595.596
789.587	640.170
789.715	595.298
789.843	602.128
789.971	601.660
790.099	591.340
790.227	605.064
790.355	600.511
790.483	611.681
790.612	602.298
790.740	591.043
790.868	604.936
790.996	599.021
791.124	592.170
791.252	588.638
791.380	602.191
791.508	596.000
791.637	597.064
791.765	571.660
791.893	584.064
792.021	581.106
792.149	585.830
792.277	590.957
792.405	571.106
792.533	594.170
792.662	560.106
792.790	566.298
792.918	577.447
793.046	568.064
793.174	596.596
793.302	583.574
793.430	590.106
793.558	556.426
793.687	574.979
793.815	576.979
793.943	583.830
794.071	598.809
794.199	581.660
794.327	568.638
794.455	638.553
794.583	656.149
794.712	560.936
794.840	577.787
794.968	573.574
795.096	592.021
795.224	547.319
795.352	567.021
795.480	595.681
795.608	575.851
795.737	571.596
795.865	556.851
795.993	540.872
796.121	541.000
796.249	550.936
796.377	566.021
796.505	548.362
796.633	539.915
796.762	540.277
796.890	550.383
797.018	564.149
797.146	545.468
797.274	537.000
797.402	545.128
797.530	549.745
797.658	530.021
797.787	589.426
797.915	536.362
798.043	546.681
798.171	524.511
798.299	535.277
798.427	520.447
798.555	534.149
798.683	516.872
798.812	544.596
798.940	587.234
799.068	533.766
799.196	566.170
799.324	527.681
799.452	534.702
799.580	519.745
799.708	574.681
799.837	509.936
799.965	514.787
800.093	545.809
800.221	495.872
800.349	520.170
800.477	515.085
800.605	522.766
800.733	533.830
800.862	518.745
800.990	560.787
801.118	499.468
801.246	498.149
801.374	529.064
801.502	524.340
801.630	498.149
801.758	516.872
801.887	523.596
802.015	494.660
802.143	504.234
802.271	516.064
802.399	501.723
802.527	499.936
802.655	544.277
802.783	560.617
802.912	505.383
803.040	495.404
803.168	486.957
803.296	488.702
803.424	509.064
803.552	498.511
803.680	495.660
803.808	501.340
803.937	491.787
804.065	485.170
804.193	496.404
804.321	535.064
804.449	475.191
804.577	489.574
804.705	493.000
804.833	516.915
804.962	476.617
805.090	483.085
805.218	498.638
805.346	491.234
805.474	494.383
805.602	513.404
805.730	485.340
805.858	467.766
805.987	485.745
806.115	481.979
806.243	492.106
806.371	513.340
806.499	588.660
806.627	610.213
806.755	581.596
806.883	496.085
807.012	481.213
807.140	503.745
807.268	490.872
807.396	492.340
807.524	459.596
807.652	475.191
807.780	533.362
807.908	479.830
808.037	520.532
808.165	492.681
808.293	483.234
808.421	517.787
808.549	469.787
808.677	467.106
808.805	508.362
808.933	479.660
809.062	478.979
809.190	530.021
809.318	485.255
809.446	463.426
809.574	512.660
809.702	461.234
809.830	475.064
809.958	476.915
810.087	472.766
810.215	489.511
810.343	472.979
810.471	475.128
810.599	453.681
810.727	467.596
810.855	445.872
810.983	455.532
811.112	472.809
811.240	457.638
811.368	469.574
811.496	495.234
811.624	476.915
811.752	455.872
811.880	470.851
812.008	449.936
812.137	465.660
812.265	432.894
812.393	469.426
812.521	477.404
812.649	461.638
812.777	450.340
812.905	484.340
813.033	443.872
813.162	450.447
813.290	444.000
813.418	461.894
813.546	441.468
813.674	438.723
813.802	454.872
813.930	429.106
814.058	443.617
814.187	460.766
814.315	447.064
814.443	457.468
814.571	457.085
814.699	469.894
814.827	453.298
814.955	438.362
815.083	471.957
815.212	473.277
815.340	477.000
815.468	431.000
815.596	440.574
815.724	451.085
815.852	424.787
815.980	438.170
816.108	431.617
816.237	430.426
816.365	438.787
816.493	445.617
816.621	432.468
816.749	441.660
816.877	448.532
817.005	455.745
817.133	452.170
817.262	435.468
817.390	432.745
817.518	432.383
817.646	441.617
817.774	428.872
817.902	428.532
818.030	426.298
818.158	465.915
818.287	448.191
818.415	417.574
818.543	432.872
818.671	444.128
818.799	427.489
818.927	432.660
819.055	435.532
819.183	423.021
819.312	419.638
819.440	417.426
819.568	416.638
819.696	430.383
819.824	438.255
819.952	415.255
820.080	432.064
820.208	418.426
820.337	418.681
820.465	456.085
820.593	420.681
820.721	423.213
820.849	425.957
820.977	416.723
821.105	421.787
821.233	393.766
821.362	439.149
821.490	402.404
821.618	410.660
821.746	403.830
821.874	422.234
822.002	403.681
822.130	413.468
822.258	397.447
822.387	408.043
822.515	429.617
822.643	419.064
822.771	411.553
822.899	409.638
823.027	451.617
823.155	396.319
823.283	397.894
823.412	412.681
823.540	402.915
823.668	450.979
823.796	398.851
823.924	427.830
824.052	425.021
824.180	414.085
824.308	392.702
824.437	391.426
824.565	408.191
824.693	415.851
824.821	407.957
824.949	405.638
825.077	396.511
825.205	433.085
825.333	418.383
825.462	430.979
825.590	397.489
825.718	411.426
825.846	396.064
825.974	395.106
826.102	392.170
826.230	382.277
826.358	389.277
826.487	390.830
826.615	427.957
826.743	382.638
826.871	408.489
826.999	446.511
827.127	395.787
827.255	392.426
827.383	381.149
827.512	410.723
827.640	386.085
827.768	384.830
827.896	397.532
828.024	389.447
828.152	386.511
828.280	382.702
828.408	377.830
828.537	393.553
828.665	393.340
828.793	389.106
828.921	376.319
829.049	398.468
829.177	378.298
829.305	376.234
829.433	390.021
829.562	392.489
829.690	370.894
829.818	410.319
829.946	375.191
830.074	385.000
830.202	402.362
830.330	403.766
830.458	418.043
830.587	380.000
830.715	389.745
830.843	381.191
830.971	393.447
831.099	404.447
831.227	363.702
831.355	372.894
831.483	386.915
831.612	414.106
831.740	381.000
831.868	382.447
831.996	374.468
832.124	376.447
832.252	357.660
832.380	386.979
832.508	424.213
832.637	367.489
832.765	370.830
832.893	404.383
833.021	365.149
833.149	355.766
833.277	379.362
833.405	366.128
833.533	363.085
833.662	367.085
833.790	362.532
833.918	381.681
834.046	411.277
834.174	369.383
834.302	363.213
834.430	363.596
834.558	374.468
834.687	376.617
834.815	363.574
834.943	369.277
835.071	368.574
835.199	375.936
835.327	378.426
835.455	364.277
835.583	398.872
835.712	359.574
835.840	356.617
835.968	370.128
836.096	413.745
836.224	375.681
836.352	354.660
836.480	376.085
836.608	360.532
836.737	364.787
836.865	356.064
836.993	376.809
837.121	368.426
837.249	347.170
837.377	383.745
837.505	367.128
837.633	358.277
837.762	358.404
837.890	394.362
838.018	390.681
838.146	399.085
838.274	379.191
838.402	385.319
838.530	359.723
838.658	346.872
838.787	362.957
838.915	358.617
839.043	347.106
839.171	370.277
839.299	343.021
839.427	354.532
839.555	360.660
839.683	376.638
839.812	387.277
839.940	351.872
840.068	365.638
840.196	356.298
840.324	367.511
840.452	358.362
840.580	388.447
840.708	355.213
840.837	378.383
840.965	348.064
841.093	353.043
841.221	351.830
841.349	359.489
841.477	360.596
841.605	364.745
841.733	351.809
841.862	358.766
841.990	401.277
842.118	333.489
842.246	355.447
842.374	348.298
842.502	329.277
842.630	370.979
842.758	365.894
842.887	336.638
843.015	349.149
843.143	374.298
843.271	346.170
843.399	385.787
843.527	348.128
843.655	329.574
843.783	344.340
843.912	334.574
844.040	369.894
844.168	331.596
844.296	333.957
844.424	337.787
844.552	354.660
844.680	360.723
844.808	359.745
844.937	347.043
845.065	337.979
845.193	357.936
845.321	336.234
845.449	339.213
845.577	344.362
845.705	334.489
845.833	331.617
845.962	345.255
846.090	333.021
846.218	339.064
846.346	344.447
846.474	353.404
846.602	336.426
846.730	360.489
846.858	353.660
846.987	344.404
847.115	320.340
847.243	354.106
847.371	359.574
847.499	346.915
847.627	324.553
847.755	330.426
847.883	339.234
848.012	345.426
848.140	337.936
848.268	339.255
848.396	321.596
848.524	354.383
848.652	313.340
848.780	330.745
848.908	337.319
849.037	328.787
849.165	343.511
849.293	343.213
849.421	341.511
849.549	326.574
849.677	338.957
849.805	335.596
849.933	334.574
850.062	321.915
850.190	324.574
850.318	341.681
850.446	314.128
850.574	310.936
850.702	325.128
850.830	328.617
850.958	341.064
851.087	310.234
851.215	333.745
851.343	317.170
851.471	319.043
851.599	322.851
851.727	330.915
851.855	378.894
851.983	334.681
852.112	325.894
852.240	315.128
852.368	320.340
852.496	318.617
852.624	316.915
852.752	324.000
852.880	307.915
853.008	324.149
853.137	332.894
853.265	333.213
853.393	318.894
853.521	340.447
853.649	331.702
853.777	320.489
853.905	327.234
854.033	310.106
854.162	378.426
854.290	318.766
854.418	308.468
854.546	311.064
854.674	421.617
854.802	325.915
854.930	301.638
855.058	302.191
855.187	303.106
855.315	338.021
855.443	300.596
855.571	308.745
855.699	306.681
855.827	315.957
855.955	305.511
856.083	315.340
856.212	315.596
856.340	307.830
856.468	353.426
856.596	330.574
856.724	311.766
856.852	309.574
856.980	308.234
857.108	316.383
857.237	299.681
857.365	328.915
857.493	313.085
857.621	299.830
857.749	309.106
857.877	319.362
858.005	327.319
858.133	309.617
858.262	305.787
858.390	294.532
858.518	290.596
858.646	289.213
858.774	301.234
858.902	278.383
859.030	305.489
859.158	303.766
859.287	314.809
859.415	327.851
859.543	290.149
859.671	285.936
859.799	317.489
859.927	299.064
860.055	299.915
860.183	309.319
860.312	303.617
860.440	305.404
860.568	301.426
860.696	282.830
860.824	368.745
860.952	343.021
861.080	307.340
861.208	303.085
861.337	314.277
861.465	329.319
861.593	328.723
861.721	294.362
861.849	292.149
861.977	293.766
862.105	303.915
862.233	330.979
862.362	305.149
862.490	311.957
862.618	298.128
862.746	295.426
862.874	286.362
863.002	289.255
863.130	318.915
863.258	300.043
863.387	303.872
863.515	317.681
863.643	299.000
863.771	360.234
863.899	293.617
864.027	283.574
864.155	274.000
864.283	313.681
864.412	290.319
864.540	288.574
864.668	281.894
864.796	284.936
864.924	294.043
865.052	297.298
865.180	282.979
865.308	263.872
865.437	294.277
865.565	291.468
865.693	321.106
865.821	289.106
865.949	304.574
866.077	294.362
866.205	294.383
866.333	302.043
866.462	278.532
866.590	291.319
866.718	294.702
866.846	278.489
866.974	293.851
867.102	302.277
867.230	316.106
867.358	291.553
867.487	283.979
867.615	304.383
867.743	292.319
867.871	294.043
867.999	291.128
868.127	285.596
868.255	330.681
868.383	331.766
868.512	281.298
868.640	277.830
868.768	270.702
868.896	267.106
869.024	314.979
869.152	277.511
869.280	291.532
869.408	313.936
869.537	274.362
869.665	341.979
869.793	274.255
869.921	312.191
870.049	291.085
870.177	286.170
870.305	319.362
870.433	265.149
870.562	293.106
870.690	266.787
870.818	270.617
870.946	286.191
871.074	314.787
871.202	289.702
871.330	299.128
871.458	264.638
871.587	279.702
871.715	285.638
871.843	270.000
871.971	267.809
872.099	280.872
872.227	270.085
872.355	285.191
872.483	285.021
872.612	283.574
872.740	283.298
872.868	274.617
872.996	279.362
873.124	274.106
873.252	271.532
873.380	270.468
873.508	262.957
873.637	289.936
873.765	265.915
873.893	318.340
874.021	276.085
874.149	268.021
874.277	283.979
874.405	265.234
874.533	271.468
874.662	1171.766
874.790	271.638
874.918	306.106
875.046	288.894
875.174	281.468
875.302	256.915
875.430	307.191
875.558	287.426
875.687	285.404
875.815	265.170
875.943	260.830
876.071	284.064
876.199	294.511
876.327	304.021
876.455	269.043
876.583	285.426
876.712	262.787
876.840	276.596
876.968	310.723
877.096	259.149
877.224	254.787
877.352	319.191
877.480	262.787
877.608	274.298
877.737	281.447
877.865	272.043
877.993	280.894
878.121	244.468
878.249	253.936
878.377	258.660
878.505	265.851
878.633	266.915
878.762	256.106
878.890	256.447
879.018	329.894
879.146	269.766
879.274	249.489
879.402	283.447
879.530	272.702
879.658	245.957
879.787	261.043
879.915	253.064
880.043	289.638
880.171	248.745
880.299	270.809
880.427	274.085
880.555	264.574
880.683	283.447
880.812	257.638
880.940	293.681
881.068	245.660
881.196	250.553
881.324	266.362
881.452	249.660
881.580	279.532
881.708	279.979
881.837	269.064
881.965	266.043
882.093	272.830
882.221	251.255
882.349	286.681
882.477	288.574
882.605	264.702
882.733	248.851
882.862	297.936
882.990	274.128
883.118	256.809
883.246	258.255
883.374	259.681
883.502	251.191
883.630	243.468
883.758	256.702
883.887	261.723
884.015	245.617
884.143	256.319
884.271	267.383
884.399	247.383
884.527	255.255
884.655	231.723
884.783	261.362
884.912	273.298
885.040	242.170
885.168	321.447
885.296	249.574
885.424	263.000
885.552	269.404
885.680	256.000
885.808	244.298
885.937	260.638
886.065	271.277
886.193	245.489
886.321	286.872
886.449	251.383
886.577	298.447
886.705	247.957
886.833	238.638
886.962	244.809
887.090	248.447
887.218	249.915
887.346	268.447
887.474	281.511
887.602	259.660
887.730	253.936
887.858	274.702
887.987	249.574
888.115	281.574
888.243	264.021
888.371	256.809
888.499	242.298
888.627	266.830
888.755	261.021
888.883	251.149
889.012	243.553
889.140	246.702
889.268	263.915
889.396	256.915
889.524	252.532
889.652	235.191
889.780	237.638
889.908	271.213
890.037	240.170
890.165	238.404
890.293	275.319
890.421	302.745
890.549	257.383
890.677	254.489
890.805	243.809
890.933	275.574
891.062	252.745
891.190	242.532
891.318	256.213
891.446	250.277
891.574	236.149
891.702	239.553
891.830	237.234
891.958	278.830
892.087	283.596
892.215	256.128
892.343	259.596
892.471	259.723
892.599	238.766
892.727	274.106
892.855	236.553
892.983	230.340
893.112	246.830
893.240	239.915
893.368	277.298
893.496	243.255
893.624	259.404
893.752	302.745
893.880	279.979
894.008	221.830
894.137	247.617
894.265	248.191
894.393	240.787
894.521	245.213
894.649	268.000
894.777	243.468
894.905	231.319
895.033	278.064
895.162	239.638
895.290	276.702
895.418	255.766
895.546	256.830
895.674	322.085
895.802	234.596
895.930	258.553
896.058	221.702
896.187	233.383
896.315	235.234
896.443	231.277
896.571	240.085
896.699	242.319
896.827	253.468
896.955	251.362
897.083	233.319
897.212	271.085
897.340	243.936
897.468	231.936
897.596	236.936
897.724	280.043
897.852	247.340
897.980	237.149
898.108	244.426
898.237	234.383
898.365	231.191
898.493	238.255
898.621	245.021
898.749	240.340
898.877	251.532
899.005	215.362
899.133	233.340
899.262	249.043
899.390	271.234
899.518	240.809
899.646	242.553
899.774	266.426
899.902	321.170
900.030	256.213
900.158	247.681
900.287	253.319
900.415	219.447
900.543	248.766
900.671	250.106
900.799	269.851
900.927	228.766
901.055	225.574
901.183	243.234
901.312	260.553
901.440	257.894
901.568	250.191
901.696	240.574
901.824	257.617
901.952	250.574
902.080	355.447
902.208	266.298
902.337	230.766
902.465	245.915
902.593	240.936
902.721	238.723
902.849	248.915
902.977	252.553
903.105	234.745
903.233	258.851
903.362	241.191
903.490	254.404
903.618	236.447
903.746	253.511
903.874	226.872
904.002	242.872
904.130	244.894
904.258	259.447
904.387	234.702
904.515	256.681
904.643	221.106
904.771	235.723
904.899	251.340
905.027	264.681
905.155	243.426
905.283	243.149
905.412	265.426
905.540	237.447
905.668	240.404
905.796	237.383
905.924	237.319
906.052	242.426
906.180	261.106
906.308	255.809
906.437	271.447
906.565	245.532
906.693	244.511
906.821	230.319
906.949	234.723
907.077	254.702
907.205	248.213
907.333	249.213
907.462	233.851
907.590	231.617
907.718	258.894
907.846	282.319
907.974	238.277
908.102	242.787
908.230	268.043
908.358	275.936
908.487	246.319
908.615	250.426
908.743	252.426
908.871	309.809
908.999	243.128
909.127	271.319
909.255	224.298
909.383	240.872
909.512	280.149
909.640	245.957
909.768	245.830
909.896	294.170
910.024	266.617
910.152	254.660
910.280	288.298
910.408	245.489
910.537	235.468
910.665	279.106
910.793	252.638
910.921	264.234
911.049	235.404
911.177	231.894
911.305	258.404
911.433	242.872
911.562	243.596
911.690	250.596
911.818	306.936
911.946	245.149
912.074	256.404
912.202	281.277
912.330	241.234
912.458	247.681
912.587	255.872
912.715	266.128
912.843	270.191
912.971	256.319
913.099	280.234
913.227	269.191
913.355	247.362
913.483	265.149
913.612	269.468
913.740	387.128
913.868	265.298
