90pol_70_100_at_750.00nm_cut_at_984.50Y_01.dat
24.04.2023
10:57:18
cut middle at Y: 984.50
top cursor: 1008 down cursor: 961 mean of: 47 lines , 2560 datapoints
wavelength(nm)	intensity[arb. units]
585.996	19069.170
586.124	18573.596
586.252	18375.383
586.380	18414.617
586.508	18501.638
586.637	18620.574
586.765	18719.936
586.893	18705.362
587.021	18734.702
587.149	18848.702
587.277	18817.340
587.405	18920.170
587.533	18860.894
587.662	19064.894
587.790	19013.745
587.918	18962.128
588.046	19067.021
588.174	18982.638
588.302	19139.830
588.430	19042.596
588.558	19035.957
588.687	19139.638
588.815	19094.894
588.943	19128.532
589.071	19144.574
589.199	19209.064
589.327	19163.574
589.455	19115.915
589.583	19335.574
589.712	19271.574
589.840	19228.277
589.968	19288.766
590.096	19286.723
590.224	19381.809
590.352	19337.638
590.480	19345.915
590.608	19373.511
590.737	19385.596
590.865	19423.894
590.993	19349.894
591.121	19445.553
591.249	19476.362
591.377	19507.830
591.505	19514.000
591.633	19561.574
591.762	19570.000
591.890	19751.106
592.018	19633.340
592.146	19669.106
592.274	19713.936
592.402	19721.936
592.530	19830.170
592.658	20048.532
592.787	19878.872
592.915	20080.660
593.043	20019.553
593.171	20082.723
593.299	20083.574
593.427	20239.000
593.555	20344.957
593.683	20317.340
593.812	20390.149
593.940	20450.809
594.068	20551.511
594.196	20694.404
594.324	20639.809
594.452	20735.830
594.580	20832.532
594.708	20910.979
594.837	20935.213
594.965	21067.064
595.093	21214.574
595.221	21137.383
595.349	21351.128
595.477	21340.362
595.605	21373.340
595.733	21415.383
595.862	21733.894
595.990	21543.064
596.118	21627.851
596.246	21867.489
596.374	21774.915
596.502	21873.915
596.630	21909.936
596.758	22003.787
596.887	21961.979
597.015	22082.957
597.143	22111.426
597.271	22137.979
597.399	22175.596
597.527	22150.255
597.655	22262.809
597.783	22219.830
597.912	22236.702
598.040	22296.170
598.168	22377.894
598.296	22380.021
598.424	22377.255
598.552	22429.830
598.680	22383.085
598.808	22485.894
598.937	22480.723
599.065	22400.787
599.193	22454.106
599.321	22555.723
599.449	22488.298
599.577	22445.596
599.705	22529.894
599.833	22542.000
599.962	22596.021
600.090	22656.766
600.218	22750.340
600.346	22832.745
600.474	22850.979
600.602	22785.617
600.730	22920.511
600.858	22954.383
600.987	23186.128
601.115	23157.872
601.243	23267.851
601.371	23254.809
601.499	23382.255
601.627	23523.362
601.755	23518.745
601.883	23590.106
602.012	23718.085
602.140	23817.277
602.268	24013.255
602.396	24003.213
602.524	24295.000
602.652	24207.830
602.780	24322.851
602.908	24528.277
603.037	24640.532
603.165	24689.702
603.293	24855.532
603.421	24949.340
603.549	25104.383
603.677	25262.681
603.805	25318.149
603.933	25471.319
604.062	25752.277
604.190	25725.894
604.318	25954.660
604.446	26008.404
604.574	26133.362
604.702	26303.957
604.830	26425.660
604.958	26471.085
605.087	26608.255
605.215	26736.574
605.343	26902.106
605.471	27063.191
605.599	27166.383
605.727	27231.723
605.855	27340.426
605.983	27429.468
606.112	27512.362
606.240	27587.255
606.368	27704.191
606.496	27940.085
606.624	27790.447
606.752	27949.511
606.880	28040.319
607.008	28240.383
607.137	28196.085
607.265	28070.553
607.393	28134.915
607.521	28378.426
607.649	28307.170
607.777	28323.404
607.905	28408.362
608.033	28358.298
608.162	28438.340
608.290	28468.319
608.418	28475.766
608.546	28550.170
608.674	28526.489
608.802	28559.447
608.930	28639.766
609.058	28624.596
609.187	28780.191
609.315	28783.745
609.443	28743.213
609.571	28871.809
609.699	28790.085
609.827	28882.255
609.955	28873.851
610.083	28880.511
610.212	28919.468
610.340	28983.000
610.468	29058.532
610.596	29124.872
610.724	29067.319
610.852	29189.681
610.980	29269.319
611.108	29323.085
611.237	29361.149
611.365	29434.851
611.493	29486.766
611.621	29648.915
611.749	29721.277
611.877	29844.979
612.005	29907.298
612.133	29977.511
612.262	30078.702
612.390	30173.043
612.518	30303.851
612.646	30493.660
612.774	30508.489
612.902	30744.064
613.030	30810.894
613.158	31062.681
613.287	31158.915
613.415	31243.830
613.543	31183.596
613.671	31335.681
613.799	31550.340
613.927	31493.872
614.055	31588.766
614.183	31769.872
614.312	31741.000
614.440	32064.362
614.568	32058.404
614.696	32254.255
614.824	32469.234
614.952	32515.255
615.080	32662.915
615.208	32745.979
615.337	32939.064
615.465	33051.936
615.593	33396.447
615.721	33511.447
615.849	33702.872
615.977	33743.383
616.105	33870.298
616.233	33918.872
616.362	34093.319
616.490	34123.894
616.618	34198.617
616.746	34339.872
616.874	34476.128
617.002	34509.638
617.130	34603.936
617.258	34910.340
617.387	34837.149
617.515	34905.319
617.643	35091.255
617.771	35133.085
617.899	35188.149
618.027	35287.957
618.155	35432.043
618.283	35460.830
618.412	35528.660
618.540	35602.362
618.668	35719.915
618.796	35732.298
618.924	36037.894
619.052	35994.617
619.180	36024.298
619.308	36222.511
619.437	36159.149
619.565	36293.489
619.693	36271.426
619.821	36364.553
619.949	36534.532
620.077	36589.468
620.205	36712.681
620.333	36821.681
620.462	36903.574
620.590	36813.277
620.718	36843.298
620.846	36999.681
620.974	37125.255
621.102	37120.702
621.230	37177.085
621.358	37292.404
621.487	37284.043
621.615	37377.681
621.743	37557.511
621.871	37517.809
621.999	37704.447
622.127	37645.447
622.255	37739.979
622.383	37791.106
622.512	37699.809
622.640	38011.085
622.768	37899.851
622.896	37962.000
623.024	38058.553
623.152	38198.532
623.280	38178.149
623.408	38215.809
623.537	38279.426
623.665	38267.255
623.793	38439.489
623.921	38441.064
624.049	38531.660
624.177	38411.702
624.305	38605.617
624.433	38640.574
624.562	38762.043
624.690	38681.383
624.818	38851.468
624.946	39001.149
625.074	38942.255
625.202	38854.426
625.330	38927.872
625.458	39049.298
625.587	39147.489
625.715	39052.766
625.843	39261.745
625.971	39258.234
626.099	39236.340
626.227	39337.149
626.355	39246.872
626.483	39496.660
626.612	39409.936
626.740	39516.574
626.868	39674.213
626.996	39785.447
627.124	39782.617
627.252	39824.170
627.380	39979.638
627.508	40081.319
627.637	39962.340
627.765	40090.064
627.893	40357.213
628.021	40442.915
628.149	40666.234
628.277	40814.064
628.405	40905.340
628.533	40760.319
628.662	40788.617
628.790	40871.277
628.918	41037.489
629.046	41129.915
629.174	41373.915
629.302	41643.043
629.430	41728.489
629.558	41558.021
629.687	41667.830
629.815	41766.766
629.943	41869.787
630.071	42047.255
630.199	42089.149
630.327	42207.000
630.455	42443.149
630.583	42424.404
630.712	42425.809
630.840	42692.426
630.968	42717.787
631.096	42805.468
631.224	42853.574
631.352	42935.000
631.480	42972.234
631.608	43141.511
631.737	43287.511
631.865	43414.149
631.993	43395.234
632.121	43542.298
632.249	43548.043
632.377	43468.745
632.505	43677.447
632.633	43516.255
632.762	43627.277
632.890	43787.128
633.018	43675.638
633.146	43901.511
633.274	43770.894
633.402	43903.468
633.530	43778.468
633.658	44070.574
633.787	43806.787
633.915	43877.128
634.043	43868.021
634.171	43873.085
634.299	43959.957
634.427	43946.872
634.555	43957.830
634.683	43775.766
634.812	43787.064
634.940	43863.702
635.068	43919.298
635.196	43844.426
635.324	43849.660
635.452	43761.426
635.580	43742.702
635.708	43697.830
635.837	43732.383
635.965	43752.213
636.093	43632.170
636.221	43603.298
636.349	43634.064
636.477	43587.745
636.605	43680.915
636.733	43486.681
636.862	43507.426
636.990	43488.936
637.118	43360.532
637.246	43415.426
637.374	43365.213
637.502	43310.234
637.630	43239.532
637.758	43297.128
637.887	43229.468
638.015	43224.426
638.143	43214.149
638.271	43215.128
638.399	43082.745
638.527	43139.660
638.655	43188.723
638.783	43228.574
638.912	43183.957
639.040	43196.596
639.168	43232.426
639.296	43133.511
639.424	43325.638
639.552	43041.000
639.680	43272.404
639.808	43173.064
639.937	43249.830
640.065	43132.191
640.193	43249.638
640.321	43173.213
640.449	43269.170
640.577	43250.511
640.705	43270.511
640.833	43378.021
640.962	43257.106
641.090	43315.106
641.218	43328.447
641.346	43464.064
641.474	43415.957
641.602	43372.319
641.730	43421.766
641.858	43566.787
641.987	43537.255
642.115	43526.809
642.243	43535.106
642.371	43593.894
642.499	43639.553
642.627	43757.617
642.755	43754.851
642.883	43795.298
643.012	43779.191
643.140	43867.277
643.268	43891.447
643.396	43858.851
643.524	44042.723
643.652	43945.511
643.780	43857.957
643.908	43952.149
644.037	44032.213
644.165	43981.660
644.293	43917.298
644.421	44058.532
644.549	44144.809
644.677	44072.638
644.805	44070.255
644.933	43951.064
645.062	44061.298
645.190	44076.489
645.318	44029.936
645.446	43991.553
645.574	43920.340
645.702	44017.617
645.830	44118.553
645.958	43842.085
646.087	44055.170
646.215	43770.170
646.343	43958.213
646.471	43776.191
646.599	43871.426
646.727	43648.638
646.855	43687.362
646.983	43760.787
647.112	43643.766
647.240	43702.170
647.368	43576.681
647.496	43440.064
647.624	43490.447
647.752	43368.617
647.880	43251.213
648.008	43204.702
648.137	43168.149
648.265	43167.106
648.393	43163.766
648.521	43082.787
648.649	42921.787
648.777	42885.149
648.905	42776.128
649.033	42672.043
649.162	42573.021
649.290	42552.872
649.418	42362.936
649.546	42446.149
649.674	42280.298
649.802	42216.809
649.930	42299.383
650.058	42056.872
650.187	41872.766
650.315	41940.277
650.443	41872.149
650.571	41855.553
650.699	41793.021
650.827	41657.064
650.955	41638.404
651.083	41473.553
651.212	41400.745
651.340	41311.468
651.468	41248.319
651.596	41075.745
651.724	41031.298
651.852	41009.213
651.980	40877.957
652.108	40822.851
652.237	40765.723
652.365	40709.277
652.493	40729.213
652.621	40554.213
652.749	40478.787
652.877	40447.021
653.005	40315.085
653.133	40227.149
653.262	40141.255
653.390	40146.426
653.518	40098.830
653.646	39996.809
653.774	40001.511
653.902	39752.766
654.030	39697.468
654.158	39694.021
654.287	39638.191
654.415	39445.681
654.543	39523.000
654.671	39396.681
654.799	39372.468
654.927	39140.340
655.055	39138.000
655.183	39047.532
655.312	38946.170
655.440	38898.255
655.568	38731.787
655.696	38710.872
655.824	38737.809
655.952	38518.255
656.080	38517.851
656.208	38399.894
656.337	38157.638
656.465	38239.532
656.593	38041.170
656.721	37902.894
656.849	37855.787
656.977	37694.340
657.105	37563.532
657.233	37543.255
657.362	37467.872
657.490	37311.702
657.618	37195.872
657.746	37102.638
657.874	36972.340
658.002	36931.532
658.130	36856.638
658.258	36694.298
658.387	36701.936
658.515	36428.234
658.643	36424.149
658.771	36228.979
658.899	36169.085
659.027	36079.000
659.155	36060.596
659.283	36101.170
659.412	35822.383
659.540	35793.830
659.668	35518.468
659.796	35558.447
659.924	35473.957
660.052	35361.085
660.180	35186.511
660.308	35162.362
660.437	35026.021
660.565	35000.702
660.693	34865.213
660.821	34727.979
660.949	34628.617
661.077	34647.957
661.205	34465.766
661.333	34370.936
661.462	34430.957
661.590	34330.979
661.718	34391.128
661.846	34107.617
661.974	34218.511
662.102	34006.872
662.230	33938.872
662.358	33692.468
662.487	33676.277
662.615	33624.638
662.743	33615.723
662.871	33513.149
662.999	33453.787
663.127	33405.149
663.255	33414.596
663.383	33267.766
663.512	33236.979
663.640	33250.319
663.768	33129.660
663.896	33125.532
664.024	33085.574
664.152	33037.532
664.280	33102.894
664.408	32901.426
664.537	32957.596
664.665	32858.255
664.793	32718.596
664.921	32698.787
665.049	32591.894
665.177	32695.489
665.305	32604.213
665.433	32462.830
665.562	32460.574
665.690	32431.468
665.818	32492.362
665.946	32360.426
666.074	32293.553
666.202	32135.043
666.330	32172.553
666.458	32115.298
666.587	32052.766
666.715	31995.723
666.843	31969.617
666.971	31890.766
667.099	31802.468
667.227	31832.809
667.355	31690.574
667.483	31576.787
667.612	31543.489
667.740	31545.170
667.868	31579.766
667.996	31495.191
668.124	31285.681
668.252	31281.851
668.380	31236.000
668.508	31125.043
668.637	31069.149
668.765	31051.191
668.893	30893.745
669.021	30836.468
669.149	30725.702
669.277	30730.936
669.405	30543.149
669.533	30486.957
669.662	30709.234
669.790	30451.574
669.918	30357.745
670.046	30226.149
670.174	30153.277
670.302	30080.617
670.430	29938.830
670.558	29924.128
670.687	29721.021
670.815	29818.936
670.943	29558.702
671.071	29520.426
671.199	29391.404
671.327	29263.319
671.455	29193.043
671.583	29144.106
671.712	29148.085
671.840	28920.319
671.968	28689.128
672.096	28710.809
672.224	28584.340
672.352	28585.723
672.480	28349.383
672.608	28227.170
672.737	28078.723
672.865	28104.106
672.993	27901.000
673.121	27758.723
673.249	27574.277
673.377	27507.404
673.505	27419.000
673.633	27298.553
673.762	27208.745
673.890	27033.851
674.018	27173.851
674.146	26811.660
674.274	26686.936
674.402	26725.447
674.530	26495.787
674.658	26313.681
674.787	26282.511
674.915	26155.681
675.043	26167.596
675.171	26038.489
675.299	25795.809
675.427	25635.894
675.555	25597.255
675.683	25517.596
675.812	25366.128
675.940	25291.702
676.068	25189.426
676.196	25079.596
676.324	25033.511
676.452	24908.277
676.580	24726.340
676.708	24752.617
676.837	24650.149
676.965	24552.830
677.093	24322.021
677.221	24262.340
677.349	24208.894
677.477	24123.702
677.605	23956.660
677.733	23956.489
677.862	23836.745
677.990	23695.383
678.118	23648.830
678.246	23522.745
678.374	23545.787
678.502	23324.851
678.630	23286.362
678.758	23186.660
678.887	23056.426
679.015	22994.596
679.143	22943.468
679.271	22838.766
679.399	22759.681
679.527	22718.979
679.655	22556.681
679.783	22555.489
679.912	22524.511
680.040	22334.681
680.168	22316.553
680.296	22189.574
680.424	22134.894
680.552	22081.681
680.680	22071.745
680.808	21914.404
680.937	21863.596
681.065	21774.936
681.193	21733.766
681.321	21735.851
681.449	21600.383
681.577	21612.851
681.705	21550.489
681.833	21440.702
681.962	21354.000
682.090	21514.894
682.218	21271.021
682.346	21238.362
682.474	21149.383
682.602	21126.149
682.730	21109.511
682.858	20996.447
682.987	20983.936
683.115	20962.894
683.243	20836.277
683.371	20815.681
683.499	20899.596
683.627	20776.830
683.755	20722.936
683.883	20767.234
684.012	20605.957
684.140	20517.894
684.268	20516.255
684.396	20407.128
684.524	20398.404
684.652	20468.319
684.780	20329.532
684.908	20283.979
685.037	20172.489
685.165	20129.362
685.293	20088.660
685.421	20099.532
685.549	19965.170
685.677	19906.191
685.805	19964.489
685.933	19927.170
686.062	19812.426
686.190	19670.617
686.318	19717.787
686.446	19605.574
686.574	19559.319
686.702	19552.213
686.830	19429.638
686.958	19310.894
687.087	19335.723
687.215	19299.021
687.343	19139.532
687.471	19210.085
687.599	19077.957
687.727	19195.255
687.855	18944.340
687.983	18972.170
688.112	18925.915
688.240	18840.447
688.368	18741.489
688.496	18702.000
688.624	18685.681
688.752	18541.277
688.880	18520.809
689.008	18472.915
689.137	18404.553
689.265	18277.489
689.393	18207.234
689.521	18117.340
689.649	18149.064
689.777	18086.234
689.905	17975.383
690.033	17940.319
690.162	17847.213
690.290	17742.723
690.418	17705.596
690.546	17727.170
690.674	17611.000
690.802	17488.574
690.930	17447.043
691.058	17422.638
691.187	17327.787
691.315	17231.638
691.443	17229.170
691.571	17156.745
691.699	17068.787
691.827	17048.468
691.955	16966.064
692.083	16896.213
692.212	16930.319
692.340	16776.617
692.468	16697.213
692.596	16678.702
692.724	16680.809
692.852	16469.745
692.980	16535.723
693.108	16412.043
693.237	16303.596
693.365	16235.426
693.493	16165.638
693.621	16112.596
693.749	16048.851
693.877	15964.809
694.005	16050.872
694.133	15881.064
694.262	15890.872
694.390	15760.064
694.518	15681.702
694.646	15696.191
694.774	15554.532
694.902	15715.340
695.030	15520.043
695.158	15384.170
695.287	15379.085
695.415	15338.213
695.543	15210.681
695.671	15326.894
695.799	15219.277
695.927	15119.000
696.055	15059.255
696.183	14956.489
696.312	14935.362
696.440	15085.489
696.568	14948.638
696.696	14838.702
696.824	14681.277
696.952	14704.106
697.080	14633.383
697.208	14451.149
697.337	14538.723
697.465	14494.745
697.593	14311.830
697.721	14348.191
697.849	14314.681
697.977	14174.489
698.105	14223.191
698.233	14061.000
698.362	14083.574
698.490	14012.213
698.618	14014.468
698.746	14015.553
698.874	13876.596
699.002	14007.936
699.130	13755.681
699.258	13718.766
699.387	13625.872
699.515	13613.489
699.643	13507.638
699.771	13523.340
699.899	13440.830
700.027	13409.702
700.155	13268.234
700.283	13283.511
700.412	13261.617
700.540	13134.723
700.668	13146.979
700.796	13020.000
700.924	12971.404
701.052	12917.660
701.180	13004.426
701.308	12829.681
701.437	12681.638
701.565	12707.511
701.693	12615.766
701.821	12552.319
701.949	12521.894
702.077	12490.213
702.205	12329.255
702.333	12353.894
702.462	12210.553
702.590	12174.277
702.718	12122.809
702.846	12123.404
702.974	11987.723
703.102	11976.340
703.230	11999.702
703.358	11859.957
703.487	11764.489
703.615	11901.809
703.743	11698.170
703.871	11645.532
703.999	11609.553
704.127	11613.660
704.255	11397.362
704.383	11529.000
704.512	11347.340
704.640	11299.000
704.768	11169.660
704.896	11196.149
705.024	11073.489
705.152	11117.213
705.280	10934.191
705.408	10927.766
705.537	10849.191
705.665	10769.043
705.793	10693.085
705.921	10626.234
706.049	10653.553
706.177	10503.830
706.305	10516.213
706.433	10564.106
706.562	10348.362
706.690	10298.638
706.818	10266.340
706.946	10381.809
707.074	10196.489
707.202	10128.979
707.330	10148.745
707.458	10059.766
707.587	9922.489
707.715	9927.021
707.843	9912.787
707.971	9863.979
708.099	9865.213
708.227	9734.681
708.355	9687.170
708.483	9647.340
708.612	9557.000
708.740	9540.383
708.868	9604.596
708.996	9471.191
709.124	9485.340
709.252	9357.979
709.380	9256.149
709.508	9367.234
709.637	9270.340
709.765	9243.957
709.893	9199.681
710.021	9160.872
710.149	9096.106
710.277	9111.234
710.405	8964.745
710.533	8970.447
710.662	8927.660
710.790	8876.255
710.918	8887.872
711.046	8878.043
711.174	8815.277
711.302	8824.447
711.430	8826.553
711.558	8658.191
711.687	8677.468
711.815	8680.787
711.943	8625.128
712.071	8589.191
712.199	8565.596
712.327	8532.085
712.455	8437.043
712.583	8470.213
712.712	8422.617
712.840	8391.872
712.968	8309.936
713.096	8344.340
713.224	8268.383
713.352	8282.000
713.480	8210.383
713.608	8211.447
713.737	8182.468
713.865	8120.447
713.993	8169.064
714.121	8048.468
714.249	8043.511
714.377	8083.191
714.505	7991.723
714.633	8095.277
714.762	7913.957
714.890	7895.894
715.018	7859.638
715.146	7839.830
715.274	7919.894
715.402	7933.468
715.530	7778.809
715.658	7714.787
715.787	7698.872
715.915	7853.745
716.043	7630.894
716.171	7678.915
716.299	7667.511
716.427	7545.298
716.555	7554.766
716.683	7508.021
716.812	7452.787
716.940	7442.638
717.068	7360.638
717.196	7543.851
717.324	7466.532
717.452	7327.191
717.580	7270.170
717.708	7245.830
717.837	7310.638
717.965	7177.064
718.093	7196.064
718.221	7087.085
718.349	7081.957
718.477	7134.085
718.605	7094.170
718.733	7000.596
718.862	6993.404
718.990	6914.830
719.118	6910.383
719.246	6827.660
719.374	6907.915
719.502	6818.447
719.630	6916.170
719.758	6723.511
719.887	6691.936
720.015	6851.723
720.143	6625.915
720.271	6557.447
720.399	6570.426
720.527	6560.404
720.655	6557.489
720.783	6563.213
720.912	6437.213
721.040	6422.596
721.168	6373.255
721.296	6406.170
721.424	6334.574
721.552	6215.298
721.680	6194.660
721.808	6213.809
721.937	6181.128
722.065	6244.191
722.193	6226.574
722.321	6046.404
722.449	6008.511
722.577	5987.085
722.705	5981.191
722.833	5937.915
722.962	5924.553
723.090	5823.574
723.218	5753.021
723.346	5757.000
723.474	5713.000
723.602	5846.596
723.730	5739.957
723.858	5789.277
723.987	5674.255
724.115	5684.936
724.243	5564.511
724.371	5563.128
724.499	5560.830
724.627	5462.426
724.755	5396.809
724.883	5408.021
725.012	5398.574
725.140	5424.638
725.268	5343.787
725.396	5244.234
725.524	5226.915
725.652	5248.681
725.780	5189.447
725.908	5254.745
726.037	5292.936
726.165	5101.447
726.293	5075.617
726.421	5072.957
726.549	4990.489
726.677	4992.660
726.805	4911.000
726.933	4953.362
727.062	4942.213
727.190	4921.468
727.318	4805.149
727.446	4817.383
727.574	4806.872
727.702	4883.915
727.830	4691.766
727.958	4795.106
728.087	4706.468
728.215	4793.638
728.343	4702.681
728.471	4631.447
728.599	4611.553
728.727	4675.894
728.855	4563.915
728.983	4515.106
729.112	4509.532
729.240	4437.745
729.368	4495.298
729.496	4464.468
729.624	4444.702
729.752	4370.574
729.880	4397.319
730.008	4325.723
730.137	4323.362
730.265	4480.532
730.393	4255.277
730.521	4362.191
730.649	4243.851
730.777	4238.979
730.905	4177.340
731.033	4259.574
731.162	4371.213
731.290	4255.149
731.418	4330.170
731.546	4264.596
731.674	4146.894
731.802	4127.702
731.930	4004.468
732.058	3961.426
732.187	3952.255
732.315	3961.936
732.443	3938.489
732.571	4068.596
732.699	3990.106
732.827	3927.468
732.955	3856.191
733.083	3855.170
733.212	3878.979
733.340	3837.553
733.468	3871.319
733.596	3773.936
733.724	3763.468
733.852	3726.596
733.980	3720.447
734.108	3875.851
734.237	3768.915
734.365	3768.851
734.493	3647.319
734.621	3631.234
734.749	3611.851
734.877	3609.787
735.005	3620.085
735.133	3628.043
735.262	3629.723
735.390	3518.383
735.518	3659.553
735.646	3463.426
735.774	3473.000
735.902	3473.872
736.030	3400.319
736.158	3497.298
736.287	3366.213
736.415	3572.723
736.543	3362.085
736.671	3312.383
736.799	3298.532
736.927	3340.596
737.055	3317.830
737.183	3367.277
737.312	3337.979
737.440	3280.447
737.568	3263.511
737.696	3216.447
737.824	3233.000
737.952	3251.957
738.080	3177.830
738.208	3192.064
738.337	3180.043
738.465	3175.574
738.593	3090.787
738.721	3051.660
738.849	3087.553
738.977	3072.213
739.105	3083.511
739.233	2999.404
739.362	2999.872
739.490	2928.426
739.618	2945.681
739.746	2909.106
739.874	3118.021
740.002	3062.319
740.130	2960.085
740.258	2865.596
740.387	2824.106
740.515	2981.277
740.643	2750.681
740.771	2816.511
740.899	2784.681
741.027	2843.681
741.155	2865.596
741.283	2697.319
741.412	2687.745
741.540	2681.617
741.668	2811.915
741.796	2803.170
741.924	2713.851
742.052	2636.106
742.180	2822.447
742.308	2609.043
742.437	2624.255
742.565	2725.234
742.693	2771.298
742.821	2685.085
742.949	2634.255
743.077	2571.404
743.205	2584.383
743.333	2565.340
743.462	2555.660
743.590	2568.596
743.718	2518.681
743.846	2546.617
743.974	2542.213
744.102	2599.319
744.230	2561.000
744.358	2509.447
744.487	2481.447
744.615	2492.085
744.743	2458.936
744.871	2463.936
744.999	2499.064
745.127	2458.085
745.255	2428.979
745.383	2452.936
745.512	2451.298
745.640	2387.149
745.768	2385.809
745.896	2405.681
746.024	2385.872
746.152	2353.766
746.280	2350.745
746.408	2335.574
746.537	2322.085
746.665	2325.340
746.793	2298.936
746.921	2259.426
747.049	2306.213
747.177	2275.851
747.305	2264.979
747.433	2304.979
747.562	2216.830
747.690	2219.660
747.818	2211.787
747.946	2212.489
748.074	2299.809
748.202	2208.468
748.330	2183.617
748.458	2195.404
748.587	2142.553
748.715	2124.340
748.843	2129.809
748.971	2137.574
749.099	2127.298
749.227	2127.723
749.355	2087.170
749.483	2070.702
749.612	2064.234
749.740	2044.617
749.868	2028.404
749.996	2039.915
750.124	1985.064
750.252	2037.319
750.380	1997.064
750.508	1977.830
750.637	1950.149
750.765	2000.064
750.893	1951.447
751.021	1973.085
751.149	1961.447
751.277	1971.021
751.405	1976.915
751.533	1984.234
751.662	1895.830
751.790	1924.447
751.918	1872.085
752.046	1869.851
752.174	1865.830
752.302	1907.468
752.430	1845.766
752.558	1819.255
752.687	1819.064
752.815	1810.915
752.943	1775.766
753.071	1773.489
753.199	1776.404
753.327	1820.851
753.455	1777.319
753.583	1732.106
753.712	1741.298
753.840	1725.149
753.968	1694.021
754.096	1711.915
754.224	1660.936
754.352	1663.681
754.480	1679.489
754.608	1660.447
754.737	1652.894
754.865	1686.851
754.993	1625.383
755.121	1617.000
755.249	1703.447
755.377	1615.043
755.505	1589.851
755.633	1620.277
755.762	1587.340
755.890	1651.106
756.018	1616.383
756.146	1577.021
756.274	1544.979
756.402	1537.298
756.530	1542.383
756.658	1547.830
756.787	1529.830
756.915	1492.021
757.043	1505.766
757.171	1507.021
757.299	1483.957
757.427	1443.787
757.555	1455.447
757.683	1483.809
757.812	1418.702
757.940	1432.723
758.068	1422.745
758.196	1389.532
758.324	1401.979
758.452	1477.915
758.580	1385.787
758.708	1399.979
758.837	1361.809
758.965	1467.426
759.093	1350.872
759.221	1319.447
759.349	1332.191
759.477	1314.915
759.605	1311.553
759.733	1298.106
759.862	1315.532
759.990	1290.532
760.118	1294.638
760.246	1265.851
760.374	1276.745
760.502	1268.851
760.630	1258.596
760.758	1244.383
760.887	1214.298
761.015	1227.468
761.143	1195.979
761.271	1209.234
761.399	1198.532
761.527	1200.468
761.655	1185.511
761.783	1167.894
761.912	1158.213
762.040	1134.723
762.168	1186.851
762.296	1144.872
762.424	1150.511
762.552	1139.021
762.680	1198.979
762.808	1107.574
762.937	1135.638
763.065	1171.851
763.193	1163.489
763.321	1117.787
763.449	1080.426
763.577	1092.213
763.705	1084.298
763.833	1140.723
763.962	1063.383
764.090	1039.638
764.218	1069.915
764.346	1065.255
764.474	1026.851
764.602	1037.234
764.730	1035.617
764.858	1052.255
764.987	1031.106
765.115	1062.021
765.243	1010.319
765.371	982.340
765.499	979.660
765.627	972.064
765.755	976.255
765.883	986.638
766.012	982.191
766.140	964.362
766.268	967.894
766.396	924.660
766.524	941.596
766.652	927.426
766.780	932.085
766.908	939.702
767.037	927.213
767.165	937.064
767.293	988.872
767.421	914.681
767.549	917.234
767.677	910.404
767.805	893.277
767.933	895.681
768.062	917.681
768.190	881.681
768.318	868.851
768.446	896.553
768.574	903.596
768.702	893.426
768.830	868.660
768.958	857.511
769.087	842.383
769.215	852.957
769.343	845.489
769.471	826.851
769.599	880.553
769.727	859.894
769.855	836.638
769.983	830.957
770.112	817.532
770.240	801.872
770.368	818.745
770.496	793.234
770.624	804.660
770.752	814.043
770.880	817.957
771.008	798.787
771.137	793.745
771.265	824.085
771.393	803.638
771.521	785.894
771.649	770.957
771.777	776.489
771.905	767.574
772.033	768.660
772.162	790.596
772.290	769.021
772.418	806.809
772.546	774.298
772.674	748.702
772.802	764.149
772.930	798.766
773.058	736.383
773.187	746.723
773.315	731.915
773.443	736.170
773.571	729.638
773.699	721.617
773.827	722.851
773.955	756.234
774.083	734.979
774.212	713.149
774.340	734.000
774.468	711.532
774.596	704.191
774.724	712.085
774.852	714.064
774.980	700.957
775.108	690.191
775.237	693.617
775.365	700.936
775.493	690.170
775.621	693.660
775.749	685.362
775.877	677.553
776.005	681.043
776.133	684.936
776.262	694.638
776.390	659.021
776.518	705.787
776.646	659.574
776.774	673.681
776.902	663.872
777.030	665.149
777.158	664.064
777.287	665.574
777.415	635.149
777.543	638.979
777.671	632.660
777.799	624.106
777.927	634.702
778.055	647.255
778.183	624.426
778.312	604.319
778.440	613.085
778.568	625.447
778.696	621.043
778.824	629.766
778.952	621.191
779.080	609.702
779.208	631.617
779.337	621.787
779.465	606.170
779.593	598.957
779.721	614.447
779.849	598.702
779.977	596.723
780.105	578.106
780.233	601.447
780.362	616.702
780.490	615.362
780.618	588.702
780.746	580.553
780.874	560.106
781.002	572.553
781.130	564.872
781.258	542.957
781.387	564.191
781.515	586.085
781.643	560.128
781.771	602.234
781.899	568.106
782.027	596.745
782.155	561.894
782.283	568.021
782.412	537.957
782.540	536.128
782.668	566.745
782.796	517.787
782.924	559.170
783.052	532.149
783.180	562.681
783.308	519.574
783.437	534.809
783.565	535.830
783.693	524.745
783.821	534.894
783.949	521.426
784.077	541.957
784.205	517.723
784.333	566.383
784.462	505.872
784.590	520.043
784.718	516.489
784.846	496.064
784.974	527.170
785.102	547.362
785.230	502.404
785.358	544.553
785.487	511.106
785.615	509.447
785.743	495.511
785.871	495.447
785.999	482.894
786.127	478.021
786.255	499.213
786.383	511.915
786.512	506.979
786.640	491.191
786.768	501.362
786.896	477.426
787.024	476.106
787.152	473.872
787.280	488.894
787.408	461.426
787.537	495.277
787.665	478.553
787.793	508.426
787.921	482.617
788.049	477.000
788.177	453.447
788.305	460.660
788.433	478.468
788.562	461.596
788.690	454.872
788.818	459.319
788.946	467.489
789.074	446.851
789.202	474.319
789.330	465.447
789.458	454.170
789.587	505.511
789.715	450.745
789.843	451.745
789.971	445.383
790.099	443.191
790.227	455.447
790.355	443.702
790.483	472.191
790.612	445.404
790.740	446.319
790.868	463.723
790.996	453.851
791.124	445.468
791.252	434.021
791.380	449.723
791.508	439.000
791.637	432.319
791.765	422.638
791.893	421.596
792.021	427.170
792.149	426.021
792.277	427.213
792.405	409.830
792.533	437.362
792.662	404.043
792.790	414.553
792.918	428.915
793.046	417.447
793.174	437.149
793.302	424.553
793.430	422.298
793.558	404.383
793.687	414.872
793.815	407.957
793.943	431.745
794.071	434.872
794.199	408.851
794.327	412.702
794.455	480.170
794.583	492.255
794.712	395.255
794.840	399.021
794.968	408.468
795.096	427.872
795.224	388.191
795.352	393.830
795.480	434.702
795.608	408.532
795.737	401.723
795.865	397.149
795.993	382.532
796.121	380.596
796.249	390.553
796.377	404.894
796.505	390.596
796.633	377.213
796.762	383.574
796.890	399.085
797.018	401.191
797.146	363.298
797.274	365.128
797.402	383.043
797.530	393.106
797.658	374.511
797.787	422.362
797.915	374.851
798.043	396.213
798.171	365.702
798.299	375.745
798.427	362.468
798.555	378.936
798.683	355.319
798.812	373.106
798.940	420.809
799.068	361.809
799.196	397.979
799.324	358.979
799.452	372.809
799.580	348.851
799.708	415.532
799.837	350.681
799.965	357.596
800.093	377.021
800.221	337.000
800.349	358.745
800.477	357.723
800.605	364.255
800.733	374.936
800.862	363.128
800.990	395.106
801.118	338.553
801.246	338.766
801.374	367.298
801.502	350.255
801.630	336.085
801.758	346.745
801.887	360.553
802.015	339.723
802.143	336.468
802.271	360.872
802.399	348.702
802.527	340.702
802.655	372.362
802.783	391.660
802.912	348.723
803.040	333.574
803.168	328.851
803.296	324.723
803.424	342.000
803.552	326.426
803.680	331.277
803.808	338.574
803.937	330.957
804.065	326.362
804.193	334.064
804.321	379.745
804.449	313.170
804.577	319.468
804.705	339.383
804.833	357.957
804.962	315.979
805.090	326.787
805.218	334.830
805.346	336.872
805.474	340.191
805.602	354.489
805.730	320.362
805.858	311.170
805.987	334.128
806.115	327.085
806.243	329.979
806.371	359.404
806.499	428.660
806.627	456.936
806.755	420.915
806.883	342.489
807.012	320.723
807.140	336.894
807.268	330.872
807.396	330.128
807.524	301.277
807.652	312.255
807.780	374.340
807.908	311.149
808.037	360.872
808.165	339.426
808.293	321.766
808.421	358.957
808.549	303.340
808.677	308.723
808.805	356.745
808.933	314.979
809.062	327.426
809.190	363.532
809.318	311.617
809.446	312.021
809.574	368.255
809.702	296.447
809.830	320.319
809.958	323.362
810.087	315.149
810.215	327.191
810.343	321.532
810.471	312.872
810.599	302.936
810.727	304.277
810.855	293.915
810.983	289.213
811.112	311.809
811.240	304.936
811.368	308.426
811.496	346.809
811.624	316.000
811.752	302.702
811.880	307.596
812.008	290.851
812.137	321.000
812.265	283.872
812.393	313.574
812.521	331.149
812.649	303.064
812.777	299.617
812.905	328.574
813.033	285.085
813.162	285.702
813.290	292.085
813.418	305.745
813.546	292.298
813.674	294.085
813.802	299.149
813.930	273.830
814.058	284.915
814.187	305.596
814.315	288.447
814.443	303.745
814.571	309.468
814.699	321.298
814.827	290.106
814.955	286.447
815.083	316.681
815.212	310.340
815.340	319.340
815.468	274.766
815.596	294.043
815.724	297.574
815.852	281.936
815.980	280.787
816.108	287.043
816.237	282.021
816.365	292.787
816.493	297.872
816.621	277.404
816.749	293.723
816.877	296.255
817.005	306.106
817.133	299.149
817.262	281.128
817.390	282.149
817.518	281.128
817.646	296.766
817.774	278.894
817.902	279.021
818.030	276.277
818.158	324.213
818.287	298.723
818.415	274.255
818.543	284.851
818.671	296.383
818.799	279.319
818.927	295.638
819.055	291.638
819.183	278.426
819.312	284.596
819.440	278.617
819.568	269.170
819.696	290.362
819.824	295.702
819.952	273.106
820.080	284.149
820.208	280.191
820.337	272.340
820.465	312.447
820.593	277.511
820.721	273.277
820.849	284.000
820.977	273.681
821.105	288.404
821.233	257.660
821.362	294.702
821.490	258.085
821.618	274.340
821.746	266.298
821.874	276.787
822.002	267.957
822.130	265.681
822.258	261.383
822.387	257.830
822.515	288.021
822.643	279.830
822.771	277.319
822.899	280.000
823.027	311.489
823.155	258.277
823.283	257.553
823.412	275.277
823.540	265.021
823.668	314.809
823.796	267.340
823.924	293.128
824.052	298.340
824.180	276.532
824.308	259.787
824.437	255.596
824.565	262.830
824.693	287.404
824.821	276.894
824.949	272.340
825.077	278.170
825.205	302.511
825.333	288.511
825.462	288.979
825.590	265.617
825.718	291.553
825.846	259.723
825.974	252.787
826.102	260.809
826.230	262.383
826.358	265.851
826.487	257.319
826.615	302.979
826.743	252.830
826.871	284.234
826.999	306.553
827.127	267.957
827.255	277.404
827.383	255.766
827.512	284.426
827.640	257.277
827.768	251.787
827.896	271.809
828.024	262.298
828.152	264.149
828.280	260.447
828.408	261.936
828.537	259.574
828.665	266.872
828.793	264.085
828.921	250.213
829.049	281.128
829.177	258.447
829.305	254.191
829.433	263.681
829.562	274.766
829.690	248.872
829.818	281.532
829.946	261.936
830.074	265.234
830.202	278.787
830.330	285.170
830.458	309.298
830.587	254.149
830.715	267.340
830.843	252.064
830.971	266.702
831.099	289.362
831.227	251.468
831.355	260.979
831.483	265.277
831.612	288.298
831.740	255.915
831.868	267.255
831.996	252.979
832.124	253.255
832.252	236.894
832.380	269.532
832.508	306.596
832.637	249.809
832.765	257.872
832.893	286.894
833.021	246.745
833.149	243.745
833.277	257.872
833.405	254.574
833.533	250.128
833.662	256.064
833.790	255.170
833.918	266.043
834.046	294.745
834.174	260.106
834.302	253.319
834.430	250.085
834.558	255.957
834.687	267.064
834.815	243.064
834.943	250.894
835.071	257.723
835.199	260.979
835.327	268.298
835.455	247.660
835.583	285.511
835.712	233.617
835.840	246.021
835.968	254.085
836.096	296.021
836.224	267.021
836.352	237.851
836.480	258.213
836.608	260.128
836.737	244.894
836.865	244.957
836.993	252.702
837.121	255.851
837.249	246.128
837.377	271.064
837.505	252.362
837.633	251.213
837.762	247.957
837.890	282.213
838.018	281.851
838.146	289.106
838.274	258.766
838.402	273.809
838.530	243.723
838.658	234.660
838.787	262.894
838.915	252.787
839.043	238.830
839.171	272.702
839.299	231.660
839.427	251.277
839.555	257.362
839.683	257.830
839.812	275.787
839.940	236.596
840.068	266.660
840.196	250.106
840.324	246.830
840.452	246.809
840.580	275.149
840.708	250.851
840.837	276.957
840.965	242.043
841.093	250.170
841.221	246.489
841.349	249.574
841.477	263.064
841.605	262.319
841.733	250.085
841.862	252.000
841.990	295.574
842.118	232.809
842.246	246.404
842.374	247.574
842.502	227.106
842.630	264.574
842.758	269.447
842.887	236.340
843.015	251.894
843.143	268.447
843.271	248.532
843.399	283.745
843.527	259.702
843.655	232.468
843.783	248.298
843.912	239.191
844.040	278.851
844.168	233.489
844.296	241.957
844.424	235.489
844.552	255.362
844.680	265.255
844.808	273.447
844.937	249.255
845.065	246.809
845.193	264.128
845.321	247.723
845.449	246.106
845.577	249.979
845.705	237.128
845.833	230.489
845.962	252.638
846.090	242.106
846.218	251.106
846.346	258.723
846.474	254.957
846.602	243.723
846.730	276.000
846.858	262.532
846.987	249.234
847.115	235.617
847.243	267.000
847.371	263.596
847.499	260.553
847.627	239.830
847.755	236.851
847.883	248.638
848.012	258.149
848.140	249.532
848.268	257.426
848.396	233.532
848.524	266.617
848.652	218.426
848.780	237.787
848.908	246.468
849.037	233.830
849.165	253.766
849.293	256.213
849.421	261.149
849.549	247.702
849.677	249.298
849.805	240.830
849.933	242.489
850.062	243.383
850.190	240.426
850.318	245.128
850.446	237.106
850.574	232.681
850.702	244.277
850.830	245.340
850.958	254.426
851.087	228.064
851.215	248.809
851.343	234.511
851.471	237.915
851.599	250.191
851.727	247.234
851.855	295.468
851.983	248.979
852.112	242.213
852.240	235.957
852.368	239.574
852.496	235.936
852.624	239.319
852.752	244.617
852.880	223.894
853.008	246.064
853.137	245.277
853.265	248.766
853.393	244.617
853.521	254.298
853.649	252.553
853.777	232.660
853.905	250.745
854.033	238.617
854.162	298.447
854.290	244.553
854.418	226.255
854.546	233.340
854.674	345.851
854.802	245.660
854.930	231.511
855.058	222.170
855.187	228.660
855.315	254.340
855.443	222.957
855.571	229.723
855.699	234.681
855.827	238.489
855.955	230.681
856.083	242.574
856.212	245.532
856.340	233.021
856.468	286.702
856.596	256.596
856.724	243.830
856.852	240.149
856.980	236.043
857.108	245.894
857.237	222.085
857.365	258.574
857.493	230.511
857.621	229.979
857.749	237.170
857.877	249.000
858.005	254.851
858.133	237.745
858.262	236.596
858.390	230.170
858.518	229.872
858.646	226.872
858.774	228.702
858.902	211.553
859.030	233.191
859.158	243.511
859.287	254.830
859.415	257.872
859.543	222.702
859.671	226.383
859.799	258.894
859.927	237.915
860.055	236.468
860.183	243.085
860.312	235.957
860.440	244.128
860.568	234.766
860.696	222.404
860.824	298.404
860.952	279.745
861.080	235.702
861.208	242.638
861.337	245.383
861.465	266.426
861.593	265.809
861.721	235.340
861.849	225.809
861.977	224.234
862.105	248.064
862.233	261.021
862.362	245.426
862.490	259.043
862.618	221.766
862.746	241.191
862.874	234.851
863.002	226.915
863.130	266.064
863.258	237.043
863.387	250.766
863.515	251.596
863.643	245.660
863.771	313.553
863.899	239.043
864.027	226.298
864.155	225.596
864.283	258.596
864.412	235.128
864.540	232.106
864.668	224.489
864.796	233.617
864.924	245.277
865.052	244.170
865.180	229.809
865.308	216.043
865.437	239.255
865.565	243.553
865.693	266.213
865.821	243.213
865.949	254.213
866.077	240.830
866.205	243.340
866.333	252.787
866.462	230.787
866.590	238.532
866.718	254.064
866.846	233.447
866.974	245.596
867.102	244.830
867.230	269.894
867.358	236.489
867.487	227.213
867.615	259.979
867.743	243.638
867.871	246.191
867.999	247.234
868.127	235.447
868.255	283.085
868.383	281.745
868.512	237.340
868.640	235.064
868.768	227.128
868.896	219.255
869.024	265.809
869.152	236.362
869.280	242.426
869.408	274.128
869.537	230.021
869.665	304.596
869.793	227.745
869.921	269.043
870.049	245.021
870.177	245.915
870.305	280.894
870.433	227.000
870.562	247.553
870.690	221.766
870.818	232.489
870.946	239.809
871.074	269.957
871.202	246.170
871.330	253.787
871.458	214.404
871.587	235.872
871.715	237.596
871.843	230.021
871.971	231.872
872.099	238.383
872.227	231.255
872.355	249.660
872.483	245.255
872.612	245.043
872.740	247.979
872.868	231.447
872.996	238.043
873.124	236.043
873.252	234.255
873.380	234.766
873.508	225.957
873.637	250.340
873.765	231.574
873.893	279.894
874.021	239.298
874.149	226.936
874.277	243.447
874.405	227.085
874.533	236.383
874.662	1122.043
874.790	235.574
874.918	272.851
875.046	252.787
875.174	248.234
875.302	224.702
875.430	263.596
875.558	246.511
875.687	250.489
875.815	236.298
875.943	239.936
876.071	248.383
876.199	266.574
876.327	272.277
876.455	235.830
876.583	253.404
876.712	231.894
876.840	248.468
876.968	276.234
877.096	230.787
877.224	228.660
877.352	287.511
877.480	226.872
877.608	251.404
877.737	248.851
877.865	235.638
877.993	256.809
878.121	214.064
878.249	229.766
878.377	228.894
878.505	237.681
878.633	237.851
878.762	232.106
878.890	224.894
879.018	296.447
879.146	241.532
879.274	221.681
879.402	253.404
879.530	243.851
879.658	222.298
879.787	234.149
879.915	222.894
880.043	265.957
880.171	219.979
880.299	251.511
880.427	244.681
880.555	242.745
880.683	260.277
880.812	222.574
880.940	265.851
881.068	225.681
881.196	231.000
881.324	247.553
881.452	223.702
881.580	256.681
881.708	258.660
881.837	250.043
881.965	245.255
882.093	250.489
882.221	226.000
882.349	269.000
882.477	257.809
882.605	250.957
882.733	224.213
882.862	274.340
882.990	251.936
883.118	235.128
883.246	234.128
883.374	238.362
883.502	229.766
883.630	222.426
883.758	233.255
883.887	255.404
884.015	226.255
884.143	234.681
884.271	247.617
884.399	230.234
884.527	236.702
884.655	217.319
884.783	248.106
884.912	251.362
885.040	231.617
885.168	298.936
885.296	232.489
885.424	251.128
885.552	248.787
885.680	243.979
885.808	228.851
885.937	243.553
886.065	246.915
886.193	228.170
886.321	273.723
886.449	229.851
886.577	282.617
886.705	229.319
886.833	226.319
886.962	229.213
887.090	240.936
887.218	238.489
887.346	248.553
887.474	268.957
887.602	245.979
887.730	237.979
887.858	260.681
887.987	227.894
888.115	270.809
888.243	240.362
888.371	240.830
888.499	230.106
888.627	250.489
888.755	240.511
888.883	233.532
889.012	230.170
889.140	238.787
889.268	257.255
889.396	248.191
889.524	241.872
889.652	226.277
889.780	222.000
889.908	270.489
890.037	231.553
890.165	229.298
890.293	258.957
890.421	295.234
890.549	250.170
890.677	237.426
890.805	230.915
890.933	258.340
891.062	239.362
891.190	231.872
891.318	245.255
891.446	244.723
891.574	229.170
891.702	235.638
891.830	231.702
891.958	268.596
892.087	275.830
892.215	243.681
892.343	246.404
892.471	246.106
892.599	235.362
892.727	261.149
892.855	236.298
892.983	225.617
893.112	234.234
893.240	224.574
893.368	266.745
893.496	238.064
893.624	243.915
893.752	293.851
893.880	274.872
894.008	218.340
894.137	244.894
894.265	242.085
894.393	240.021
894.521	233.787
894.649	263.574
894.777	241.021
894.905	223.830
895.033	268.809
895.162	239.851
895.290	273.532
895.418	253.681
895.546	252.128
895.674	315.149
895.802	234.404
895.930	255.596
896.058	216.957
896.187	227.915
896.315	233.872
896.443	231.532
896.571	237.468
896.699	235.723
896.827	251.957
896.955	251.426
897.083	232.128
897.212	273.936
897.340	231.340
897.468	229.532
897.596	228.000
897.724	273.489
897.852	244.894
897.980	239.000
898.108	244.213
898.237	232.426
898.365	226.085
898.493	240.532
898.621	242.064
898.749	239.213
898.877	250.915
899.005	218.468
899.133	235.170
899.262	251.915
899.390	267.915
899.518	246.191
899.646	245.766
899.774	261.787
899.902	315.957
900.030	249.872
900.158	243.404
900.287	256.319
900.415	216.936
900.543	250.234
900.671	237.830
900.799	266.191
900.927	231.426
901.055	236.766
901.183	246.872
901.312	264.745
901.440	255.447
901.568	247.532
901.696	239.021
901.824	249.511
901.952	256.745
902.080	354.745
902.208	270.362
902.337	235.532
902.465	247.809
902.593	241.234
902.721	244.830
902.849	256.234
902.977	248.043
903.105	237.851
903.233	254.553
903.362	233.617
903.490	250.787
903.618	234.894
903.746	258.064
903.874	229.021
904.002	249.404
904.130	249.170
904.258	258.830
904.387	235.574
904.515	257.723
904.643	226.681
904.771	236.064
904.899	257.191
905.027	270.340
905.155	248.426
905.283	244.936
905.412	258.489
905.540	241.638
905.668	242.128
905.796	239.809
905.924	244.043
906.052	243.106
906.180	268.851
906.308	251.298
906.437	273.638
906.565	243.426
906.693	245.936
906.821	230.809
906.949	240.340
907.077	255.213
907.205	244.766
907.333	245.106
907.462	242.085
907.590	238.319
907.718	261.894
907.846	280.489
907.974	233.681
908.102	251.340
908.230	267.596
908.358	276.936
908.487	251.766
908.615	250.255
908.743	252.809
908.871	297.681
908.999	246.915
909.127	280.936
909.255	228.979
909.383	242.255
909.512	276.787
909.640	247.170
909.768	244.830
909.896	298.489
910.024	278.064
910.152	261.234
910.280	295.894
910.408	250.574
910.537	244.787
910.665	278.043
910.793	255.000
910.921	265.830
911.049	240.170
911.177	235.085
911.305	264.021
911.433	251.936
911.562	254.596
911.690	255.106
911.818	303.957
911.946	251.468
912.074	264.277
912.202	284.596
912.330	247.872
912.458	253.809
912.587	268.170
912.715	268.723
912.843	277.617
912.971	274.468
913.099	283.021
913.227	269.553
913.355	252.745
913.483	273.383
913.612	267.489
913.740	389.383
913.868	262.319
