90pol_90_90_at_750.00nm_cut_at_984.50Y_01.dat
24.04.2023
10:49:45
cut middle at Y: 984.50
top cursor: 1008 down cursor: 961 mean of: 47 lines , 2560 datapoints
wavelength(nm)	intensity[arb. units]
585.996	15310.511
586.124	14830.745
586.252	14713.106
586.380	14762.745
586.508	14804.000
586.637	14797.979
586.765	14924.085
586.893	14946.894
587.021	14938.574
587.149	14984.894
587.277	14959.915
587.405	15052.766
587.533	14966.511
587.662	15142.979
587.790	15104.766
587.918	15048.809
588.046	15148.426
588.174	15061.915
588.302	15147.043
588.430	15038.979
588.558	15060.128
588.687	15136.106
588.815	15080.064
588.943	15029.723
589.071	15042.787
589.199	15129.957
589.327	15088.830
589.455	15061.723
589.583	15109.106
589.712	15123.085
589.840	15062.809
589.968	15077.915
590.096	15081.872
590.224	15127.872
590.352	15111.149
590.480	15140.319
590.608	15029.745
590.737	15130.298
590.865	15143.745
590.993	14996.957
591.121	15104.106
591.249	15123.468
591.377	15120.468
591.505	15094.787
591.633	15099.809
591.762	15076.191
591.890	15255.936
592.018	15057.766
592.146	15123.957
592.274	15114.000
592.402	15136.617
592.530	15165.489
592.658	15380.957
592.787	15205.511
592.915	15410.404
593.043	15263.979
593.171	15277.085
593.299	15351.957
593.427	15400.979
593.555	15395.830
593.683	15416.723
593.812	15453.213
593.940	15478.213
594.068	15535.085
594.196	15646.660
594.324	15655.149
594.452	15585.894
594.580	15693.723
594.708	15692.340
594.837	15658.234
594.965	15779.000
595.093	15806.298
595.221	15878.000
595.349	15993.702
595.477	15904.809
595.605	15967.553
595.733	15908.085
595.862	16185.468
595.990	15983.809
596.118	16027.362
596.246	16228.872
596.374	16184.787
596.502	16111.851
596.630	16221.511
596.758	16219.170
596.887	16168.723
597.015	16243.170
597.143	16319.340
597.271	16231.532
597.399	16285.660
597.527	16229.723
597.655	16308.319
597.783	16267.766
597.912	16249.426
598.040	16256.915
598.168	16308.383
598.296	16273.809
598.424	16266.872
598.552	16298.979
598.680	16266.000
598.808	16342.617
598.937	16264.574
599.065	16223.319
599.193	16225.213
599.321	16298.234
599.449	16235.362
599.577	16159.468
599.705	16203.681
599.833	16176.766
599.962	16207.213
600.090	16247.511
600.218	16268.064
600.346	16260.298
600.474	16262.532
600.602	16231.702
600.730	16345.957
600.858	16378.936
600.987	16514.213
601.115	16416.000
601.243	16490.617
601.371	16469.957
601.499	16573.894
601.627	16548.787
601.755	16559.043
601.883	16734.106
602.012	16743.745
602.140	16708.000
602.268	16863.426
602.396	16839.106
602.524	16989.170
602.652	16940.681
602.780	16976.894
602.908	17088.043
603.037	17189.277
603.165	17209.000
603.293	17327.979
603.421	17346.064
603.549	17448.149
603.677	17541.702
603.805	17526.340
603.933	17687.404
604.062	17832.809
604.190	17776.957
604.318	17913.489
604.446	17958.702
604.574	18018.936
604.702	18078.426
604.830	18141.702
604.958	18206.255
605.087	18314.191
605.215	18325.043
605.343	18339.106
605.471	18505.426
605.599	18570.043
605.727	18518.085
605.855	18616.596
605.983	18614.426
606.112	18707.447
606.240	18717.362
606.368	18768.511
606.496	18973.596
606.624	18772.702
606.752	18886.298
606.880	19014.915
607.008	19070.957
607.137	19000.468
607.265	18814.298
607.393	18898.830
607.521	19060.574
607.649	18916.957
607.777	18881.638
607.905	18941.404
608.033	18883.979
608.162	18866.872
608.290	18854.447
608.418	18836.064
608.546	18878.128
608.674	18868.830
608.802	18805.617
608.930	18776.830
609.058	18846.277
609.187	18932.511
609.315	18878.723
609.443	18904.021
609.571	18907.894
609.699	18852.404
609.827	18917.638
609.955	18889.000
610.083	18807.383
610.212	18862.362
610.340	18803.787
610.468	18900.532
610.596	18916.851
610.724	18916.064
610.852	18887.043
610.980	18913.191
611.108	18966.872
611.237	18900.723
611.365	18973.638
611.493	18961.979
611.621	19076.766
611.749	19084.362
611.877	19117.638
612.005	19199.681
612.133	19302.660
612.262	19295.383
612.390	19334.191
612.518	19324.383
612.646	19530.000
612.774	19450.809
612.902	19573.511
613.030	19681.085
613.158	19836.106
613.287	19756.106
613.415	19779.489
613.543	19721.787
613.671	19708.511
613.799	19899.660
613.927	19817.340
614.055	19827.872
614.183	19977.894
614.312	19889.021
614.440	20089.383
614.568	20000.851
614.696	20128.362
614.824	20293.085
614.952	20189.043
615.080	20246.447
615.208	20329.213
615.337	20452.766
615.465	20510.106
615.593	20698.511
615.721	20862.426
615.849	20954.936
615.977	20914.596
616.105	20971.745
616.233	20864.234
616.362	20984.362
616.490	20987.426
616.618	21093.191
616.746	21069.660
616.874	21154.617
617.002	21105.234
617.130	21204.085
617.258	21389.596
617.387	21340.340
617.515	21325.830
617.643	21320.447
617.771	21370.277
617.899	21474.766
618.027	21460.319
618.155	21504.872
618.283	21453.957
618.412	21506.468
618.540	21634.468
618.668	21566.723
618.796	21655.787
618.924	21814.319
619.052	21652.383
619.180	21670.489
619.308	21835.191
619.437	21786.064
619.565	21741.106
619.693	21769.617
619.821	21806.021
619.949	21783.298
620.077	21890.553
620.205	21938.872
620.333	22028.064
620.462	21971.043
620.590	22029.064
620.718	22031.468
620.846	22023.106
620.974	22018.830
621.102	22071.936
621.230	22008.277
621.358	22220.404
621.487	22072.277
621.615	22160.170
621.743	22293.745
621.871	22218.809
621.999	22246.213
622.127	22210.064
622.255	22193.319
622.383	22238.234
622.512	22185.766
622.640	22338.362
622.768	22187.574
622.896	22225.957
623.024	22283.851
623.152	22389.830
623.280	22297.468
623.408	22264.809
623.537	22313.383
623.665	22338.362
623.793	22348.915
623.921	22302.766
624.049	22336.957
624.177	22283.745
624.305	22407.894
624.433	22387.723
624.562	22372.170
624.690	22370.106
624.818	22456.340
624.946	22575.298
625.074	22473.702
625.202	22439.723
625.330	22388.362
625.458	22495.660
625.587	22424.255
625.715	22475.979
625.843	22536.681
625.971	22539.468
626.099	22540.617
626.227	22559.383
626.355	22471.872
626.483	22614.319
626.612	22558.319
626.740	22576.319
626.868	22656.745
626.996	22670.234
627.124	22670.574
627.252	22683.702
627.380	22754.489
627.508	22764.979
627.637	22786.617
627.765	22820.383
627.893	22910.149
628.021	22961.021
628.149	23267.191
628.277	23346.319
628.405	23324.170
628.533	23084.298
628.662	23081.021
628.790	23128.255
628.918	23243.787
629.046	23330.489
629.174	23462.447
629.302	23765.617
629.430	23579.064
629.558	23535.362
629.687	23565.702
629.815	23608.128
629.943	23677.723
630.071	23745.319
630.199	23844.170
630.327	23872.298
630.455	23989.319
630.583	24004.511
630.712	24012.340
630.840	24076.064
630.968	24152.468
631.096	24080.702
631.224	24171.745
631.352	24176.085
631.480	24291.191
631.608	24323.894
631.737	24433.915
631.865	24581.191
631.993	24418.128
632.121	24574.404
632.249	24542.894
632.377	24502.064
632.505	24629.872
632.633	24475.362
632.762	24524.915
632.890	24675.404
633.018	24510.149
633.146	24725.000
633.274	24607.511
633.402	24631.596
633.530	24550.085
633.658	24737.489
633.787	24628.362
633.915	24699.213
634.043	24606.596
634.171	24619.638
634.299	24607.298
634.427	24660.106
634.555	24655.766
634.683	24671.489
634.812	24729.532
634.940	24613.872
635.068	24586.787
635.196	24585.043
635.324	24620.255
635.452	24589.553
635.580	24531.468
635.708	24564.702
635.837	24604.191
635.965	24501.766
636.093	24494.319
636.221	24577.021
636.349	24581.894
636.477	24499.532
636.605	24592.957
636.733	24464.043
636.862	24415.383
636.990	24388.191
637.118	24371.766
637.246	24514.915
637.374	24331.426
637.502	24377.957
637.630	24390.723
637.758	24366.596
637.887	24313.298
638.015	24359.021
638.143	24423.043
638.271	24364.340
638.399	24365.787
638.527	24321.872
638.655	24335.936
638.783	24453.723
638.912	24388.936
639.040	24371.851
639.168	24363.234
639.296	24378.277
639.424	24532.957
639.552	24388.787
639.680	24552.383
639.808	24449.043
639.937	24466.255
640.065	24422.596
640.193	24499.149
640.321	24464.191
640.449	24490.340
640.577	24510.872
640.705	24532.426
640.833	24625.234
640.962	24462.532
641.090	24559.872
641.218	24520.468
641.346	24653.234
641.474	24629.851
641.602	24631.872
641.730	24699.000
641.858	24760.340
641.987	24698.489
642.115	24725.489
642.243	24861.617
642.371	24891.872
642.499	24929.511
642.627	24957.340
642.755	24964.106
642.883	25079.085
643.012	25031.596
643.140	25052.191
643.268	25143.085
643.396	25114.234
643.524	25249.851
643.652	25230.426
643.780	25173.064
643.908	25316.255
644.037	25295.085
644.165	25284.809
644.293	25324.617
644.421	25473.723
644.549	25423.936
644.677	25458.681
644.805	25420.511
644.933	25352.681
645.062	25430.340
645.190	25446.979
645.318	25594.234
645.446	25496.000
645.574	25526.340
645.702	25490.915
645.830	25800.404
645.958	25486.319
646.087	25698.191
646.215	25475.362
646.343	25727.000
646.471	25574.064
646.599	25616.426
646.727	25600.170
646.855	25627.532
646.983	25571.426
647.112	25546.149
647.240	25695.149
647.368	25588.830
647.496	25566.809
647.624	25506.617
647.752	25511.043
647.880	25602.383
648.008	25517.617
648.137	25580.489
648.265	25530.489
648.393	25454.426
648.521	25494.532
648.649	25457.447
648.777	25467.638
648.905	25420.681
649.033	25402.745
649.162	25386.830
649.290	25446.106
649.418	25298.809
649.546	25347.085
649.674	25364.681
649.802	25318.553
649.930	25461.851
650.058	25343.106
650.187	25280.234
650.315	25250.787
650.443	25296.894
650.571	25199.936
650.699	25222.128
650.827	25218.362
650.955	25211.872
651.083	25242.957
651.212	25213.383
651.340	25190.255
651.468	25155.128
651.596	25081.255
651.724	25151.149
651.852	25113.617
651.980	25126.532
652.108	25078.596
652.237	25105.532
652.365	25179.447
652.493	25038.191
652.621	25013.787
652.749	25055.596
652.877	25042.660
653.005	25048.894
653.133	25022.723
653.262	25024.957
653.390	24994.532
653.518	25079.617
653.646	25013.638
653.774	25174.745
653.902	25002.277
654.030	24995.745
654.158	24905.532
654.287	24943.830
654.415	24941.000
654.543	24977.191
654.671	24989.085
654.799	24880.447
654.927	24876.340
655.055	24874.043
655.183	24815.021
655.312	24795.298
655.440	24844.404
655.568	24805.660
655.696	24826.915
655.824	24957.787
655.952	24783.511
656.080	24732.298
656.208	24857.787
656.337	24651.681
656.465	24608.383
656.593	24639.574
656.721	24512.298
656.849	24626.809
656.977	24528.404
657.105	24461.340
657.233	24456.404
657.362	24387.957
657.490	24295.809
657.618	24367.021
657.746	24352.234
657.874	24310.702
658.002	24292.574
658.130	24203.702
658.258	24164.426
658.387	24194.660
658.515	24044.191
658.643	24044.106
658.771	24148.043
658.899	24149.191
659.027	24021.213
659.155	24064.766
659.283	24181.723
659.412	23983.255
659.540	24027.426
659.668	23915.468
659.796	23930.745
659.924	23907.191
660.052	23868.979
660.180	23746.149
660.308	23738.085
660.437	23680.128
660.565	23720.426
660.693	23665.766
660.821	23675.447
660.949	23680.170
661.077	23625.149
661.205	23654.340
661.333	23595.851
661.462	23618.128
661.590	23594.064
661.718	23672.936
661.846	23491.426
661.974	23578.915
662.102	23447.064
662.230	23473.128
662.358	23435.191
662.487	23394.532
662.615	23388.085
662.743	23346.170
662.871	23346.447
662.999	23341.149
663.127	23293.617
663.255	23444.106
663.383	23443.660
663.512	23308.830
663.640	23401.128
663.768	23313.277
663.896	23388.191
664.024	23345.574
664.152	23314.277
664.280	23397.383
664.408	23362.383
664.537	23404.213
664.665	23365.043
664.793	23261.979
664.921	23262.787
665.049	23279.766
665.177	23295.234
665.305	23316.638
665.433	23250.447
665.562	23257.255
665.690	23304.234
665.818	23452.596
665.946	23212.872
666.074	23235.617
666.202	23272.830
666.330	23342.809
666.458	23267.574
666.587	23273.468
666.715	23217.362
666.843	23268.319
666.971	23236.574
667.099	23200.766
667.227	23256.447
667.355	23220.745
667.483	23252.830
667.612	23239.000
667.740	23144.532
667.868	23257.064
667.996	23226.660
668.124	23111.043
668.252	23076.106
668.380	23170.660
668.508	23071.234
668.637	23063.362
668.765	23003.447
668.893	23046.170
669.021	22995.957
669.149	23020.574
669.277	22942.298
669.405	22916.170
669.533	22929.702
669.662	23184.404
669.790	22893.957
669.918	22885.915
670.046	22744.617
670.174	22821.128
670.302	22683.787
670.430	22716.787
670.558	22722.766
670.687	22636.936
670.815	22701.532
670.943	22499.511
671.071	22465.000
671.199	22473.553
671.327	22323.957
671.455	22346.064
671.583	22320.000
671.712	22361.511
671.840	22234.915
671.968	22034.000
672.096	22077.830
672.224	22017.298
672.352	22084.319
672.480	21933.149
672.608	21747.319
672.737	21685.511
672.865	21787.383
672.993	21634.553
673.121	21547.553
673.249	21475.851
673.377	21425.170
673.505	21360.213
673.633	21310.319
673.762	21190.894
673.890	21125.681
674.018	21358.809
674.146	21072.596
674.274	21027.830
674.402	21079.000
674.530	20957.745
674.658	20816.596
674.787	20738.021
674.915	20687.085
675.043	20716.894
675.171	20656.064
675.299	20550.064
675.427	20446.766
675.555	20384.851
675.683	20341.277
675.812	20342.064
675.940	20264.106
676.068	20157.404
676.196	20120.596
676.324	20058.766
676.452	20015.404
676.580	19871.000
676.708	19875.766
676.837	19882.404
676.965	19757.638
677.093	19682.723
677.221	19652.915
677.349	19574.426
677.477	19590.064
677.605	19520.745
677.733	19529.404
677.862	19307.426
677.990	19307.915
678.118	19265.489
678.246	19200.702
678.374	19194.447
678.502	19073.191
678.630	19039.404
678.758	18990.936
678.887	18912.255
679.015	18897.617
679.143	18852.596
679.271	18819.383
679.399	18784.000
679.527	18706.915
679.655	18670.213
679.783	18654.234
679.912	18632.319
680.040	18518.149
680.168	18456.489
680.296	18493.638
680.424	18415.596
680.552	18295.787
680.680	18419.298
680.808	18299.574
680.937	18276.362
681.065	18203.851
681.193	18213.234
681.321	18223.872
681.449	18120.660
681.577	18170.043
681.705	18083.149
681.833	18039.149
681.962	17936.021
682.090	18116.149
682.218	17984.213
682.346	17854.000
682.474	17852.468
682.602	17838.277
682.730	17871.277
682.858	17776.872
682.987	17801.894
683.115	17765.574
683.243	17666.681
683.371	17617.702
683.499	17685.468
683.627	17698.128
683.755	17684.617
683.883	17746.681
684.012	17587.383
684.140	17526.638
684.268	17456.106
684.396	17479.277
684.524	17473.702
684.652	17544.553
684.780	17426.660
684.908	17443.681
685.037	17309.085
685.165	17267.000
685.293	17245.128
685.421	17317.702
685.549	17191.915
685.677	17145.830
685.805	17274.213
685.933	17160.851
686.062	17049.340
686.190	17045.000
686.318	17023.574
686.446	16960.617
686.574	16939.404
686.702	17010.128
686.830	16821.383
686.958	16795.702
687.087	16820.319
687.215	16806.851
687.343	16725.915
687.471	16652.894
687.599	16536.426
687.727	16769.957
687.855	16561.851
687.983	16573.085
688.112	16553.702
688.240	16442.489
688.368	16376.426
688.496	16386.128
688.624	16363.830
688.752	16248.489
688.880	16253.362
689.008	16213.043
689.137	16192.149
689.265	16048.787
689.393	15997.191
689.521	16006.128
689.649	15950.000
689.777	15924.170
689.905	15861.128
690.033	15830.021
690.162	15746.043
690.290	15723.128
690.418	15669.447
690.546	15714.404
690.674	15628.957
690.802	15525.277
690.930	15485.128
691.058	15436.936
691.187	15372.553
691.315	15356.511
691.443	15360.340
691.571	15263.362
691.699	15241.426
691.827	15237.872
691.955	15138.702
692.083	15023.128
692.212	15169.553
692.340	14988.894
692.468	14888.426
692.596	14890.149
692.724	14991.319
692.852	14794.319
692.980	14853.191
693.108	14677.787
693.237	14649.128
693.365	14580.191
693.493	14504.851
693.621	14503.574
693.749	14427.149
693.877	14364.894
694.005	14460.064
694.133	14294.106
694.262	14244.723
694.390	14193.340
694.518	14131.319
694.646	14110.468
694.774	14080.191
694.902	14153.936
695.030	14028.723
695.158	13930.043
695.287	13911.851
695.415	13857.298
695.543	13821.638
695.671	13872.277
695.799	13720.809
695.927	13660.936
696.055	13653.957
696.183	13608.191
696.312	13538.064
696.440	13701.553
696.568	13575.404
696.696	13509.830
696.824	13362.298
696.952	13349.915
697.080	13335.170
697.208	13226.191
697.337	13280.191
697.465	13186.085
697.593	13084.766
697.721	13066.298
697.849	13042.319
697.977	13042.234
698.105	12982.660
698.233	12905.915
698.362	12841.447
698.490	12844.489
698.618	12752.383
698.746	12854.106
698.874	12730.000
699.002	12864.574
699.130	12641.213
699.258	12615.255
699.387	12512.532
699.515	12522.340
699.643	12437.149
699.771	12447.638
699.899	12306.936
700.027	12341.043
700.155	12256.574
700.283	12189.957
700.412	12235.511
700.540	12089.511
700.668	12111.809
700.796	12003.617
700.924	11955.574
701.052	11970.894
701.180	12019.574
701.308	11847.596
701.437	11766.319
701.565	11706.660
701.693	11682.191
701.821	11634.915
701.949	11585.511
702.077	11588.957
702.205	11485.383
702.333	11437.745
702.462	11343.574
702.590	11335.128
702.718	11316.809
702.846	11200.723
702.974	11135.043
703.102	11135.404
703.230	11185.723
703.358	11034.319
703.487	10924.043
703.615	11079.149
703.743	10889.660
703.871	10844.085
703.999	10815.681
704.127	10815.021
704.255	10599.319
704.383	10750.319
704.512	10565.766
704.640	10539.319
704.768	10415.191
704.896	10465.085
705.024	10297.723
705.152	10409.787
705.280	10282.234
705.408	10161.362
705.537	10144.638
705.665	10075.362
705.793	9996.745
705.921	9933.766
706.049	9943.574
706.177	9849.319
706.305	9840.021
706.433	9891.043
706.562	9755.660
706.690	9672.723
706.818	9615.574
706.946	9842.404
707.074	9561.681
707.202	9516.745
707.330	9519.383
707.458	9421.043
707.587	9365.723
707.715	9341.723
707.843	9354.255
707.971	9323.957
708.099	9284.745
708.227	9183.957
708.355	9125.426
708.483	9106.745
708.612	9039.809
708.740	9047.574
708.868	9064.532
708.996	8961.638
709.124	8940.064
709.252	8887.447
709.380	8820.064
709.508	8819.830
709.637	8765.319
709.765	8741.957
709.893	8720.809
710.021	8666.787
710.149	8646.319
710.277	8662.638
710.405	8522.277
710.533	8517.830
710.662	8459.255
710.790	8485.383
710.918	8434.574
711.046	8424.404
711.174	8348.957
711.302	8351.085
711.430	8386.277
711.558	8221.723
711.687	8236.723
711.815	8245.872
711.943	8163.851
712.071	8160.234
712.199	8222.574
712.327	8156.298
712.455	8083.064
712.583	8137.000
712.712	8044.319
712.840	8009.574
712.968	7997.064
713.096	8044.340
713.224	7896.213
713.352	7888.532
713.480	7811.234
713.608	7854.191
713.737	7854.106
713.865	7781.277
713.993	7834.191
714.121	7731.447
714.249	7734.660
714.377	7791.809
714.505	7700.979
714.633	7814.681
714.762	7675.043
714.890	7543.638
715.018	7564.426
715.146	7579.213
715.274	7608.766
715.402	7659.809
715.530	7554.447
715.658	7441.596
715.787	7397.532
715.915	7596.362
716.043	7396.213
716.171	7413.702
716.299	7427.745
716.427	7327.319
716.555	7254.872
716.683	7232.596
716.812	7218.191
716.940	7255.532
717.068	7144.702
717.196	7319.340
717.324	7205.660
717.452	7127.553
717.580	7052.915
717.708	7047.170
717.837	7094.574
717.965	6980.617
718.093	6966.532
718.221	6895.681
718.349	6919.170
718.477	6918.660
718.605	6901.468
718.733	6801.447
718.862	6775.936
718.990	6783.064
719.118	6729.106
719.246	6667.851
719.374	6761.851
719.502	6655.660
719.630	6797.234
719.758	6609.660
719.887	6528.468
720.015	6737.085
720.143	6505.340
720.271	6454.574
720.399	6465.064
720.527	6489.638
720.655	6445.872
720.783	6447.170
720.912	6315.915
721.040	6343.298
721.168	6223.957
721.296	6340.617
721.424	6216.851
721.552	6135.830
721.680	6144.723
721.808	6124.511
721.937	6093.532
722.065	6121.000
722.193	6187.191
722.321	6017.723
722.449	5988.277
722.577	5929.660
722.705	5879.362
722.833	5926.468
722.962	5896.021
723.090	5778.511
723.218	5729.915
723.346	5747.617
723.474	5703.872
723.602	5820.830
723.730	5746.787
723.858	5822.298
723.987	5671.915
724.115	5704.702
724.243	5597.213
724.371	5574.149
724.499	5583.979
724.627	5448.957
724.755	5429.298
724.883	5432.957
725.012	5414.064
725.140	5428.723
725.268	5383.617
725.396	5274.702
725.524	5248.064
725.652	5301.915
725.780	5213.128
725.908	5318.277
726.037	5376.936
726.165	5150.809
726.293	5121.426
726.421	5091.340
726.549	5072.660
726.677	5058.255
726.805	5020.532
726.933	4989.362
727.062	5020.617
727.190	4974.468
727.318	4904.617
727.446	4921.745
727.574	4871.149
727.702	4976.723
727.830	4795.000
727.958	4873.319
728.087	4796.936
728.215	4868.511
728.343	4844.064
728.471	4724.255
728.599	4707.340
728.727	4792.957
728.855	4644.915
728.983	4643.702
729.112	4639.809
729.240	4584.681
729.368	4612.574
729.496	4592.894
729.624	4552.979
729.752	4510.809
729.880	4552.170
730.008	4472.149
730.137	4451.745
730.265	4620.638
730.393	4417.787
730.521	4534.064
730.649	4409.234
730.777	4405.170
730.905	4338.660
731.033	4415.617
731.162	4542.957
731.290	4454.000
731.418	4495.362
731.546	4416.128
731.674	4317.766
731.802	4329.064
731.930	4221.000
732.058	4157.702
732.187	4184.468
732.315	4169.340
732.443	4144.021
732.571	4267.298
732.699	4177.170
732.827	4135.915
732.955	4068.106
733.083	4038.255
733.212	4086.553
733.340	4096.957
733.468	4075.638
733.596	3984.277
733.724	3991.830
733.852	3951.766
733.980	3976.106
734.108	4092.766
734.237	3997.149
734.365	3987.340
734.493	3894.000
734.621	3821.128
734.749	3862.957
734.877	3827.553
735.005	3881.979
735.133	3867.745
735.262	3892.085
735.390	3756.383
735.518	3896.787
735.646	3677.787
735.774	3726.638
735.902	3712.936
736.030	3664.489
736.158	3722.426
736.287	3628.787
736.415	3794.383
736.543	3613.596
736.671	3558.170
736.799	3564.574
736.927	3643.149
737.055	3608.362
737.183	3657.340
737.312	3623.532
737.440	3546.362
737.568	3544.468
737.696	3496.298
737.824	3499.979
737.952	3492.872
738.080	3424.021
738.208	3458.574
738.337	3444.298
738.465	3481.936
738.593	3373.596
738.721	3335.362
738.849	3392.064
738.977	3336.979
739.105	3368.979
739.233	3319.745
739.362	3333.319
739.490	3227.298
739.618	3234.574
739.746	3227.894
739.874	3421.745
740.002	3338.681
740.130	3260.426
740.258	3190.766
740.387	3127.681
740.515	3284.043
740.643	3088.745
740.771	3125.043
740.899	3111.574
741.027	3148.149
741.155	3204.426
741.283	3023.915
741.412	2996.191
741.540	3044.638
741.668	3129.660
741.796	3161.617
741.924	3032.191
742.052	2959.638
742.180	3126.000
742.308	2938.511
742.437	2929.596
742.565	3035.936
742.693	3121.383
742.821	3020.638
742.949	2937.915
743.077	2873.191
743.205	2847.000
743.333	2856.404
743.462	2835.064
743.590	2865.426
743.718	2762.149
743.846	2771.255
743.974	2811.043
744.102	2935.638
744.230	2809.404
744.358	2742.574
744.487	2687.809
744.615	2769.638
744.743	2682.383
744.871	2651.447
744.999	2740.787
745.127	2682.574
745.255	2622.681
745.383	2630.702
745.512	2664.468
745.640	2559.723
745.768	2594.851
745.896	2632.234
746.024	2573.702
746.152	2585.447
746.280	2565.106
746.408	2629.362
746.537	2658.638
746.665	2554.191
746.793	2576.702
746.921	2555.319
747.049	2674.404
747.177	2580.298
747.305	2543.000
747.433	2577.638
747.562	2540.234
747.690	2534.745
747.818	2572.489
747.946	2503.319
748.074	2611.936
748.202	2543.532
748.330	2546.043
748.458	2512.064
748.587	2488.936
748.715	2468.404
748.843	2487.277
748.971	2473.255
749.099	2481.362
749.227	2470.213
749.355	2456.936
749.483	2449.255
749.612	2443.511
749.740	2433.723
749.868	2423.085
749.996	2411.404
750.124	2382.511
750.252	2402.787
750.380	2413.255
750.508	2356.638
750.637	2356.511
750.765	2409.426
750.893	2364.340
751.021	2355.809
751.149	2371.319
751.277	2352.085
751.405	2357.617
751.533	2379.021
751.662	2300.660
751.790	2328.000
751.918	2273.638
752.046	2278.894
752.174	2240.170
752.302	2299.851
752.430	2251.362
752.558	2200.191
752.687	2214.043
752.815	2202.787
752.943	2185.319
753.071	2172.085
753.199	2190.085
753.327	2205.085
753.455	2170.277
753.583	2134.638
753.712	2143.979
753.840	2125.574
753.968	2101.681
754.096	2088.362
754.224	2057.170
754.352	2076.213
754.480	2058.191
754.608	2054.000
754.737	2061.085
754.865	2087.170
754.993	2048.021
755.121	2020.404
755.249	2106.574
755.377	1993.426
755.505	2001.255
755.633	2013.234
755.762	1967.000
755.890	2022.681
756.018	2000.106
756.146	1954.894
756.274	1934.511
756.402	1915.660
756.530	1928.936
756.658	1947.915
756.787	1929.064
756.915	1855.872
757.043	1889.340
757.171	1869.362
757.299	1859.787
757.427	1845.340
757.555	1830.851
757.683	1874.149
757.812	1798.766
757.940	1801.574
758.068	1775.681
758.196	1774.383
758.324	1755.106
758.452	1884.362
758.580	1733.383
758.708	1765.128
758.837	1716.255
758.965	1804.404
759.093	1693.957
759.221	1675.362
759.349	1715.894
759.477	1686.936
759.605	1676.085
759.733	1656.638
759.862	1667.319
759.990	1652.319
760.118	1654.723
760.246	1608.553
760.374	1631.979
760.502	1640.617
760.630	1622.255
760.758	1598.277
760.887	1551.957
761.015	1584.426
761.143	1547.489
761.271	1560.851
761.399	1532.043
761.527	1541.702
761.655	1552.511
761.783	1514.085
761.912	1512.596
762.040	1484.957
762.168	1534.532
762.296	1482.957
762.424	1482.340
762.552	1497.745
762.680	1536.277
762.808	1429.766
762.937	1454.106
763.065	1499.277
763.193	1484.404
763.321	1449.149
763.449	1401.553
763.577	1402.340
763.705	1398.851
763.833	1483.191
763.962	1368.702
764.090	1366.404
764.218	1383.574
764.346	1374.979
764.474	1331.979
764.602	1356.298
764.730	1320.447
764.858	1353.170
764.987	1326.191
765.115	1370.277
765.243	1313.936
765.371	1295.404
765.499	1275.553
765.627	1260.681
765.755	1272.362
765.883	1284.128
766.012	1260.809
766.140	1237.596
766.268	1257.064
766.396	1219.617
766.524	1227.830
766.652	1223.915
766.780	1232.553
766.908	1216.234
767.037	1204.043
767.165	1220.319
767.293	1258.681
767.421	1185.511
767.549	1185.383
767.677	1190.277
767.805	1173.447
767.933	1183.298
768.062	1190.915
768.190	1161.340
768.318	1150.872
768.446	1159.106
768.574	1179.574
768.702	1161.574
768.830	1130.957
768.958	1122.617
769.087	1116.702
769.215	1118.851
769.343	1116.723
769.471	1090.298
769.599	1140.979
769.727	1105.745
769.855	1087.574
769.983	1090.596
770.112	1071.574
770.240	1070.213
770.368	1074.872
770.496	1050.426
770.624	1056.489
770.752	1065.128
770.880	1086.043
771.008	1048.064
771.137	1036.957
771.265	1084.043
771.393	1043.660
771.521	1033.404
771.649	1027.660
771.777	1028.106
771.905	1023.064
772.033	1020.404
772.162	1034.298
772.290	1010.766
772.418	1054.617
772.546	1026.021
772.674	990.936
772.802	1006.809
772.930	1034.553
773.058	970.340
773.187	981.362
773.315	979.489
773.443	980.596
773.571	970.170
773.699	971.660
773.827	953.213
773.955	991.574
774.083	967.234
774.212	956.000
774.340	962.596
774.468	948.383
774.596	947.298
774.724	951.468
774.852	931.638
774.980	930.511
775.108	927.617
775.237	929.362
775.365	918.596
775.493	909.872
775.621	912.319
775.749	898.553
775.877	895.170
776.005	888.362
776.133	918.128
776.262	913.000
776.390	873.617
776.518	920.723
776.646	876.787
776.774	900.447
776.902	884.681
777.030	861.213
777.158	878.851
777.287	871.234
777.415	861.149
777.543	856.447
777.671	841.234
777.799	846.447
777.927	844.745
778.055	856.702
778.183	833.000
778.312	800.681
778.440	818.766
778.568	831.894
778.696	810.830
778.824	820.936
778.952	818.681
779.080	786.702
779.208	822.596
779.337	811.617
779.465	803.191
779.593	800.745
779.721	807.043
779.849	789.809
779.977	779.021
780.105	761.021
780.233	787.064
780.362	805.000
780.490	818.660
780.618	765.128
780.746	761.149
780.874	754.638
781.002	760.872
781.130	728.511
781.258	738.660
781.387	753.894
781.515	751.043
781.643	737.851
781.771	770.638
781.899	733.340
782.027	774.404
782.155	734.085
782.283	721.809
782.412	708.511
782.540	714.702
782.668	751.362
782.796	683.149
782.924	726.362
783.052	698.447
783.180	725.000
783.308	692.915
783.437	689.723
783.565	693.468
783.693	695.021
783.821	693.745
783.949	676.766
784.077	705.000
784.205	668.915
784.333	718.191
784.462	657.617
784.590	672.383
784.718	679.894
784.846	657.340
784.974	680.745
785.102	708.149
785.230	661.404
785.358	687.830
785.487	639.809
785.615	658.553
785.743	641.128
785.871	651.383
785.999	628.255
786.127	617.957
786.255	642.660
786.383	658.723
786.512	666.000
786.640	633.553
786.768	648.021
786.896	615.128
787.024	616.872
787.152	614.447
787.280	623.170
787.408	609.809
787.537	633.787
787.665	612.894
787.793	642.787
787.921	618.404
788.049	613.106
788.177	595.426
788.305	599.234
788.433	626.787
788.562	581.638
788.690	586.872
788.818	585.638
788.946	592.043
789.074	579.617
789.202	595.021
789.330	598.511
789.458	567.574
789.587	632.447
789.715	577.426
789.843	577.894
789.971	571.617
790.099	566.596
790.227	586.191
790.355	563.681
790.483	595.319
790.612	570.532
790.740	560.404
790.868	576.255
790.996	570.404
791.124	552.149
791.252	551.191
791.380	562.000
791.508	562.213
791.637	551.872
791.765	542.170
791.893	534.128
792.021	545.191
792.149	541.149
792.277	553.723
792.405	526.043
792.533	545.851
792.662	509.362
792.790	520.553
792.918	544.787
793.046	521.787
793.174	541.766
793.302	534.085
793.430	531.064
793.558	511.234
793.687	517.830
793.815	519.234
793.943	531.191
794.071	534.787
794.199	505.426
794.327	509.340
794.455	581.979
794.583	601.638
794.712	491.830
794.840	500.553
794.968	509.660
795.096	519.936
795.224	482.787
795.352	495.574
795.480	521.319
795.608	495.872
795.737	502.170
795.865	485.936
795.993	475.319
796.121	467.936
796.249	480.021
796.377	490.723
796.505	476.851
796.633	460.106
796.762	465.809
796.890	481.234
797.018	492.681
797.146	465.723
797.274	452.809
797.402	460.702
797.530	471.191
797.658	456.021
797.787	506.064
797.915	458.617
798.043	470.511
798.171	450.085
798.299	465.511
798.427	438.617
798.555	451.596
798.683	429.617
798.812	451.000
798.940	507.574
799.068	442.511
799.196	475.574
799.324	433.404
799.452	452.383
799.580	424.064
799.708	487.085
799.837	417.702
799.965	431.404
800.093	444.319
800.221	409.426
800.349	425.447
800.477	430.894
800.605	436.043
800.733	442.000
800.862	429.787
800.990	460.362
801.118	403.298
801.246	419.255
801.374	425.149
801.502	415.043
801.630	392.277
801.758	413.106
801.887	434.085
802.015	403.319
802.143	395.894
802.271	428.681
802.399	406.021
802.527	389.809
802.655	435.851
802.783	445.766
802.912	405.085
803.040	391.277
803.168	384.255
803.296	377.170
803.424	396.447
803.552	382.766
803.680	386.468
803.808	391.830
803.937	387.660
804.065	381.213
804.193	380.085
804.321	438.149
804.449	373.936
804.577	377.170
804.705	387.809
804.833	407.447
804.962	363.851
805.090	379.106
805.218	384.532
805.346	385.064
805.474	379.234
805.602	399.702
805.730	375.426
805.858	359.574
805.987	375.191
806.115	365.383
806.243	370.468
806.371	392.000
806.499	471.426
806.627	495.362
806.755	470.638
806.883	374.128
807.012	360.362
807.140	388.851
807.268	374.085
807.396	377.106
807.524	344.000
807.652	360.489
807.780	417.043
807.908	350.596
808.037	399.447
808.165	372.809
808.293	356.681
808.421	397.617
808.549	342.447
808.677	352.872
808.805	389.319
808.933	359.255
809.062	368.000
809.190	399.979
809.318	353.936
809.446	355.149
809.574	398.128
809.702	336.149
809.830	360.255
809.958	358.681
810.087	355.574
810.215	367.809
810.343	350.170
810.471	355.255
810.599	339.234
810.727	342.447
810.855	325.745
810.983	326.404
811.112	343.872
811.240	340.404
811.368	344.766
811.496	377.000
811.624	352.255
811.752	338.021
811.880	346.596
812.008	329.043
812.137	353.213
812.265	319.383
812.393	348.298
812.521	356.979
812.649	336.064
812.777	331.532
812.905	361.617
813.033	321.213
813.162	326.340
813.290	320.213
813.418	348.617
813.546	320.596
813.674	321.255
813.802	331.170
813.930	304.404
814.058	319.660
814.187	326.809
814.315	317.894
814.443	330.277
814.571	335.128
814.699	347.383
814.827	321.234
814.955	315.383
815.083	345.404
815.212	341.234
815.340	344.298
815.468	312.553
815.596	315.426
815.724	325.383
815.852	311.957
815.980	311.106
816.108	313.702
816.237	303.574
816.365	318.319
816.493	331.383
816.621	304.681
816.749	317.574
816.877	323.064
817.005	328.936
817.133	321.085
817.262	302.957
817.390	312.894
817.518	306.447
817.646	319.638
817.774	293.915
817.902	296.340
818.030	304.191
818.158	339.553
818.287	321.617
818.415	296.043
818.543	304.128
818.671	327.404
818.799	300.106
818.927	312.298
819.055	316.915
819.183	293.766
819.312	305.085
819.440	293.340
819.568	290.872
819.696	297.596
819.824	319.723
819.952	292.787
820.080	302.106
820.208	295.638
820.337	293.489
820.465	331.383
820.593	293.617
820.721	289.851
820.849	301.660
820.977	299.894
821.105	309.043
821.233	275.766
821.362	312.596
821.490	276.660
821.618	293.936
821.746	286.851
821.874	295.404
822.002	290.298
822.130	289.000
822.258	276.511
822.387	283.149
822.515	298.106
822.643	294.809
822.771	293.404
822.899	285.447
823.027	327.957
823.155	277.681
823.283	272.064
823.412	290.234
823.540	281.319
823.668	336.894
823.796	272.787
823.924	310.170
824.052	314.574
824.180	290.915
824.308	275.596
824.437	279.043
824.565	282.617
824.693	298.766
824.821	285.468
824.949	289.468
825.077	289.255
825.205	313.617
825.333	296.809
825.462	308.638
825.590	278.957
825.718	299.745
825.846	275.064
825.974	267.149
826.102	274.021
826.230	271.766
826.358	280.277
826.487	273.021
826.615	313.447
826.743	266.787
826.871	299.766
826.999	326.851
827.127	286.234
827.255	280.404
827.383	261.979
827.512	289.638
827.640	265.745
827.768	266.489
827.896	282.596
828.024	270.681
828.152	275.830
828.280	273.468
828.408	263.489
828.537	276.979
828.665	273.660
828.793	276.936
828.921	258.745
829.049	287.128
829.177	264.723
829.305	262.106
829.433	274.936
829.562	282.915
829.690	254.383
829.818	292.362
829.946	271.723
830.074	275.766
830.202	280.553
830.330	287.617
830.458	303.468
830.587	269.319
830.715	271.660
830.843	263.915
830.971	280.936
831.099	291.468
831.227	265.574
831.355	262.809
831.483	273.383
831.612	296.596
831.740	265.298
831.868	270.787
831.996	266.170
832.124	258.660
832.252	249.362
832.380	279.362
832.508	317.574
832.637	254.660
832.765	267.723
832.893	292.681
833.021	253.021
833.149	255.021
833.277	270.723
833.405	253.298
833.533	254.681
833.662	258.766
833.790	253.702
833.918	262.894
834.046	293.936
834.174	263.596
834.302	254.340
834.430	251.596
834.558	260.404
834.687	273.319
834.815	248.957
834.943	258.043
835.071	262.894
835.199	259.872
835.327	274.681
835.455	250.702
835.583	292.404
835.712	248.468
835.840	254.787
835.968	257.191
836.096	301.149
836.224	271.340
836.352	248.809
836.480	263.234
836.608	267.064
836.737	251.128
836.865	246.489
836.993	258.596
837.121	260.064
837.249	247.872
837.377	269.511
837.505	264.191
837.633	252.021
837.762	247.191
837.890	281.298
838.018	286.106
838.146	293.277
838.274	268.383
838.402	278.872
838.530	252.128
838.658	233.489
838.787	265.617
838.915	260.404
839.043	239.872
839.171	271.702
839.299	242.638
839.427	252.362
839.555	256.213
839.683	272.702
839.812	279.426
839.940	239.957
840.068	261.872
840.196	258.553
840.324	252.170
840.452	253.234
840.580	286.191
840.708	259.681
840.837	281.021
840.965	244.489
841.093	249.319
841.221	244.745
841.349	251.383
841.477	265.596
841.605	260.957
841.733	248.957
841.862	257.170
841.990	304.702
842.118	231.723
842.246	243.830
842.374	252.702
842.502	228.255
842.630	266.064
842.758	271.213
842.887	235.213
843.015	248.191
843.143	274.787
843.271	249.064
843.399	292.957
843.527	253.447
843.655	227.702
843.783	245.489
843.912	244.681
844.040	276.085
844.168	238.106
844.296	242.106
844.424	234.426
844.552	256.383
844.680	261.043
844.808	266.830
844.937	248.745
845.065	250.128
845.193	264.979
845.321	249.851
845.449	248.319
845.577	248.170
845.705	236.936
845.833	235.596
845.962	258.340
846.090	234.255
846.218	247.574
846.346	255.638
846.474	254.809
846.602	250.532
846.730	281.511
846.858	262.383
846.987	249.128
847.115	232.170
847.243	267.191
847.371	252.532
847.499	259.766
847.627	238.851
847.755	231.851
847.883	246.830
848.012	253.915
848.140	245.660
848.268	253.787
848.396	230.362
848.524	258.319
848.652	220.872
848.780	240.298
848.908	252.702
849.037	237.213
849.165	256.362
849.293	249.809
849.421	263.553
849.549	238.830
849.677	246.234
849.805	247.383
849.933	247.340
850.062	235.043
850.190	239.277
850.318	248.957
850.446	244.617
850.574	230.851
850.702	241.170
850.830	239.340
850.958	253.213
851.087	225.255
851.215	243.532
851.343	232.553
851.471	240.340
851.599	246.596
851.727	244.277
851.855	290.787
851.983	248.681
852.112	242.255
852.240	232.340
852.368	244.106
852.496	235.404
852.624	235.979
852.752	244.617
852.880	219.489
853.008	243.596
853.137	244.745
853.265	252.468
853.393	243.957
853.521	253.660
853.649	239.000
853.777	231.213
853.905	250.596
854.033	238.191
854.162	298.957
854.290	240.553
854.418	225.362
854.546	233.064
854.674	335.426
854.802	238.723
854.930	228.085
855.058	224.362
855.187	228.511
855.315	259.915
855.443	221.979
855.571	224.787
855.699	225.851
855.827	237.809
855.955	239.213
856.083	240.298
856.212	246.638
856.340	228.362
856.468	280.511
856.596	255.468
856.724	245.681
856.852	237.702
856.980	229.574
857.108	245.298
857.237	224.596
857.365	260.043
857.493	233.128
857.621	223.596
857.749	244.468
857.877	248.170
858.005	255.191
858.133	236.660
858.262	232.745
858.390	228.128
858.518	218.000
858.646	223.532
858.774	232.745
858.902	210.021
859.030	229.787
859.158	245.787
859.287	244.766
859.415	255.830
859.543	219.362
859.671	228.894
859.799	255.830
859.927	235.043
860.055	228.255
860.183	242.085
860.312	235.383
860.440	232.468
860.568	234.532
860.696	220.787
860.824	295.787
860.952	272.830
861.080	230.979
861.208	232.957
861.337	236.745
861.465	258.957
861.593	259.787
861.721	227.383
861.849	231.851
861.977	219.404
862.105	244.426
862.233	262.255
862.362	236.000
862.490	253.936
862.618	224.170
862.746	234.213
862.874	229.149
863.002	228.277
863.130	256.021
863.258	234.809
863.387	242.745
863.515	249.979
863.643	243.745
863.771	304.872
863.899	229.723
864.027	220.426
864.155	224.532
864.283	250.213
864.412	230.702
864.540	229.319
864.668	220.340
864.796	229.787
864.924	238.489
865.052	241.489
865.180	227.702
865.308	213.660
865.437	229.617
865.565	244.277
865.693	268.234
865.821	238.106
865.949	255.447
866.077	237.851
866.205	240.340
866.333	243.787
866.462	218.894
866.590	234.894
866.718	240.766
866.846	227.979
866.974	240.447
867.102	247.830
867.230	265.723
867.358	234.915
867.487	227.830
867.615	258.979
867.743	235.043
867.871	236.021
867.999	237.787
868.127	230.106
868.255	279.936
868.383	280.638
868.512	226.383
868.640	239.766
868.768	220.255
868.896	217.064
869.024	261.319
869.152	229.404
869.280	240.383
869.408	267.255
869.537	222.511
869.665	292.894
869.793	226.149
869.921	260.745
870.049	239.277
870.177	239.234
870.305	279.660
870.433	220.553
870.562	246.255
870.690	216.404
870.818	223.596
870.946	240.277
871.074	264.532
871.202	243.106
871.330	244.957
871.458	210.213
871.587	230.723
871.715	240.383
871.843	222.043
871.971	223.319
872.099	237.830
872.227	225.000
872.355	244.319
872.483	242.021
872.612	242.383
872.740	243.362
872.868	225.979
872.996	229.404
873.124	226.106
873.252	233.787
873.380	225.681
873.508	224.213
873.637	246.574
873.765	225.511
873.893	279.872
874.021	237.681
874.149	228.702
874.277	235.128
874.405	222.426
874.533	230.957
874.662	1135.766
874.790	235.043
874.918	271.043
875.046	251.170
875.174	246.872
875.302	219.106
875.430	265.723
875.558	241.979
875.687	244.702
875.815	228.426
875.943	222.745
876.071	245.872
876.199	256.191
876.327	272.660
876.455	236.553
876.583	253.213
876.712	231.787
876.840	236.830
876.968	272.085
877.096	228.085
877.224	215.489
877.352	286.596
877.480	224.021
877.608	233.489
877.737	245.553
877.865	228.319
877.993	250.426
878.121	214.957
878.249	219.277
878.377	223.596
878.505	239.340
878.633	230.851
878.762	230.553
878.890	222.851
879.018	290.660
879.146	241.511
879.274	219.787
879.402	256.957
879.530	234.574
879.658	220.723
879.787	234.766
879.915	227.660
880.043	262.447
880.171	213.702
880.299	247.723
880.427	239.872
880.555	231.702
880.683	252.106
880.812	223.298
880.940	261.596
881.068	213.191
881.196	224.851
881.324	245.277
881.452	213.447
881.580	251.702
881.708	252.596
881.837	241.128
881.965	241.213
882.093	245.617
882.221	226.298
882.349	263.277
882.477	249.809
882.605	242.064
882.733	225.809
882.862	267.426
882.990	246.979
883.118	223.851
883.246	231.213
883.374	226.745
883.502	227.362
883.630	217.170
883.758	235.362
883.887	242.447
884.015	217.511
884.143	222.766
884.271	247.085
884.399	220.234
884.527	229.426
884.655	208.787
884.783	243.787
884.912	245.915
885.040	222.191
885.168	293.787
885.296	223.936
885.424	243.596
885.552	250.404
885.680	233.681
885.808	222.404
885.937	242.702
886.065	243.319
886.193	219.851
886.321	272.064
886.449	222.596
886.577	277.000
886.705	227.043
886.833	229.489
886.962	222.383
887.090	236.872
887.218	236.404
887.346	250.021
887.474	267.489
887.602	240.617
887.730	244.723
887.858	254.574
887.987	226.404
888.115	268.340
888.243	241.681
888.371	240.213
888.499	224.702
888.627	251.000
888.755	243.766
888.883	227.362
889.012	228.851
889.140	228.404
889.268	249.809
889.396	244.660
889.524	233.553
889.652	221.085
889.780	214.617
889.908	260.830
890.037	224.170
890.165	223.298
890.293	254.872
890.421	278.702
890.549	242.638
890.677	236.872
890.805	217.234
890.933	259.830
891.062	234.766
891.190	224.170
891.318	240.915
891.446	231.787
891.574	224.553
891.702	230.894
891.830	229.617
891.958	266.149
892.087	266.085
892.215	240.000
892.343	238.766
892.471	246.745
892.599	235.872
892.727	255.617
892.855	227.319
892.983	225.064
893.112	232.404
893.240	219.872
893.368	263.617
893.496	229.532
893.624	237.447
893.752	290.532
893.880	267.447
894.008	213.702
894.137	239.170
894.265	239.787
894.393	237.191
894.521	223.596
894.649	257.617
894.777	234.851
894.905	219.830
895.033	257.723
895.162	227.234
895.290	266.021
895.418	249.085
895.546	250.000
895.674	314.787
895.802	224.149
895.930	242.638
896.058	219.404
896.187	226.702
896.315	225.617
896.443	220.787
896.571	230.043
896.699	233.298
896.827	244.340
896.955	246.532
897.083	222.872
897.212	271.255
897.340	226.149
897.468	214.936
897.596	230.617
897.724	270.681
897.852	235.979
897.980	233.319
898.108	230.468
898.237	222.362
898.365	221.426
898.493	230.766
898.621	234.213
898.749	232.404
898.877	234.426
899.005	214.191
899.133	231.787
899.262	242.255
899.390	261.894
899.518	235.894
899.646	238.043
899.774	260.447
899.902	306.085
900.030	243.149
900.158	231.936
900.287	246.553
900.415	216.638
900.543	241.128
900.671	234.681
900.799	260.660
900.927	228.043
901.055	222.170
901.183	240.149
901.312	257.851
901.440	245.426
901.568	247.298
901.696	238.404
901.824	246.234
901.952	241.000
902.080	350.894
902.208	262.894
902.337	232.340
902.465	244.660
902.593	236.830
902.721	236.745
902.849	248.000
902.977	246.915
903.105	237.085
903.233	251.021
903.362	233.149
903.490	245.936
903.618	226.000
903.746	251.617
903.874	225.936
904.002	244.723
904.130	246.128
904.258	259.745
904.387	225.468
904.515	252.085
904.643	218.447
904.771	229.362
904.899	244.894
905.027	262.489
905.155	246.617
905.283	246.957
905.412	259.957
905.540	235.362
905.668	237.511
905.796	236.553
905.924	237.234
906.052	232.468
906.180	258.957
906.308	245.809
906.437	266.851
906.565	235.915
906.693	243.021
906.821	219.000
906.949	234.213
907.077	244.915
907.205	239.894
907.333	240.213
907.462	232.830
907.590	232.106
907.718	257.447
907.846	280.511
907.974	230.383
908.102	243.936
908.230	260.021
908.358	280.234
908.487	246.936
908.615	252.021
908.743	244.830
908.871	298.191
908.999	238.021
909.127	271.404
909.255	230.106
909.383	234.170
909.512	275.149
909.640	243.511
909.768	245.362
909.896	293.319
910.024	264.617
910.152	243.021
910.280	289.149
910.408	240.723
910.537	236.362
910.665	267.149
910.793	247.021
910.921	258.851
911.049	237.702
911.177	228.277
911.305	259.043
911.433	248.745
911.562	243.894
911.690	244.936
911.818	297.787
911.946	240.894
912.074	256.787
912.202	279.894
912.330	246.149
912.458	250.489
912.587	260.681
912.715	268.319
912.843	271.830
912.971	261.106
913.099	280.021
913.227	263.340
913.355	253.809
913.483	266.128
913.612	261.191
913.740	379.447
913.868	257.723
