0pol_70_110_at_750.00nm_cut_at_984.50Y_01.dat
24.04.2023
10:53:44
cut middle at Y: 984.50
top cursor: 1008 down cursor: 961 mean of: 47 lines , 2560 datapoints
wavelength(nm)	intensity[arb. units]
585.996	11086.255
586.124	10793.277
586.252	10733.234
586.380	10743.255
586.508	10850.830
586.637	10918.809
586.765	10925.894
586.893	10954.000
587.021	10983.830
587.149	11108.638
587.277	11047.085
587.405	11131.809
587.533	11007.979
587.662	11195.872
587.790	11122.596
587.918	11050.787
588.046	11133.319
588.174	11100.362
588.302	11200.851
588.430	11097.574
588.558	11076.149
588.687	11129.021
588.815	11152.255
588.943	11079.553
589.071	11061.213
589.199	11178.851
589.327	11126.489
589.455	11071.043
589.583	11194.596
589.712	11187.255
589.840	11129.149
589.968	11141.043
590.096	11147.213
590.224	11198.404
590.352	11226.723
590.480	11159.979
590.608	11160.574
590.737	11285.830
590.865	11270.894
590.993	11204.362
591.121	11234.553
591.249	11291.362
591.377	11253.106
591.505	11211.787
591.633	11353.383
591.762	11270.021
591.890	11424.489
592.018	11261.574
592.146	11323.085
592.274	11316.213
592.402	11318.447
592.530	11374.979
592.658	11586.170
592.787	11403.915
592.915	11575.638
593.043	11451.340
593.171	11506.021
593.299	11532.064
593.427	11542.638
593.555	11589.170
593.683	11583.447
593.812	11627.702
593.940	11655.277
594.068	11685.085
594.196	11769.574
594.324	11743.979
594.452	11802.234
594.580	11794.213
594.708	11860.149
594.837	11868.787
594.965	11928.723
595.093	11997.936
595.221	11989.979
595.349	12112.979
595.477	12057.681
595.605	12021.340
595.733	12003.340
595.862	12290.468
595.990	12077.809
596.118	12133.383
596.246	12292.000
596.374	12160.447
596.502	12185.340
596.630	12227.043
596.758	12238.532
596.887	12292.553
597.015	12211.660
597.143	12232.447
597.271	12285.979
597.399	12265.511
597.527	12263.298
597.655	12322.872
597.783	12209.745
597.912	12268.234
598.040	12269.085
598.168	12281.979
598.296	12271.170
598.424	12283.021
598.552	12268.915
598.680	12241.915
598.808	12397.511
598.937	12279.638
599.065	12206.702
599.193	12328.532
599.321	12353.213
599.449	12258.617
599.577	12277.298
599.705	12338.021
599.833	12310.191
599.962	12302.149
600.090	12292.915
600.218	12390.532
600.346	12420.319
600.474	12345.489
600.602	12353.936
600.730	12476.234
600.858	12490.404
600.987	12692.766
601.115	12538.404
601.243	12561.511
601.371	12656.319
601.499	12680.106
601.627	12719.660
601.755	12720.936
601.883	12806.511
602.012	12772.787
602.140	12773.489
602.268	12904.468
602.396	12908.809
602.524	13044.723
602.652	12935.319
602.780	13016.000
602.908	13062.021
603.037	13058.872
603.165	13090.851
603.293	13197.447
603.421	13208.851
603.549	13296.617
603.677	13365.191
603.805	13405.383
603.933	13387.511
604.062	13471.426
604.190	13552.021
604.318	13543.957
604.446	13616.000
604.574	13681.170
604.702	13671.426
604.830	13739.000
604.958	13756.064
605.087	13736.319
605.215	13800.319
605.343	13860.255
605.471	13890.617
605.599	13937.404
605.727	13915.234
605.855	13953.064
605.983	13983.149
606.112	13998.489
606.240	14007.766
606.368	14039.894
606.496	14257.255
606.624	14124.319
606.752	14150.745
606.880	14251.511
607.008	14345.532
607.137	14259.468
607.265	14142.404
607.393	14176.404
607.521	14316.489
607.649	14213.383
607.777	14191.660
607.905	14276.745
608.033	14234.979
608.162	14274.447
608.290	14255.277
608.418	14274.851
608.546	14312.340
608.674	14260.383
608.802	14266.851
608.930	14233.213
609.058	14261.511
609.187	14394.660
609.315	14363.894
609.443	14333.574
609.571	14353.936
609.699	14316.404
609.827	14382.021
609.955	14392.021
610.083	14318.660
610.212	14319.106
610.340	14300.936
610.468	14447.319
610.596	14421.447
610.724	14369.511
610.852	14348.723
610.980	14406.894
611.108	14488.149
611.237	14377.809
611.365	14433.170
611.493	14388.553
611.621	14471.574
611.749	14478.766
611.877	14569.255
612.005	14589.596
612.133	14640.574
612.262	14640.553
612.390	14621.085
612.518	14702.489
612.646	14783.702
612.774	14737.234
612.902	14835.511
613.030	14860.085
613.158	15020.170
613.287	14933.872
613.415	14956.128
613.543	14866.596
613.671	14902.404
613.799	15033.830
613.927	14915.532
614.055	14965.447
614.183	15122.809
614.312	15017.149
614.440	15197.553
614.568	15092.021
614.696	15198.383
614.824	15322.468
614.952	15226.362
615.080	15305.596
615.208	15324.574
615.337	15432.298
615.465	15531.723
615.593	15620.191
615.721	15692.064
615.849	15747.851
615.977	15827.532
616.105	15833.830
616.233	15745.872
616.362	15885.766
616.490	15851.702
616.618	15890.234
616.746	15963.106
616.874	15970.021
617.002	15961.574
617.130	16022.511
617.258	16211.000
617.387	16045.915
617.515	16067.979
617.643	16117.596
617.771	16084.638
617.899	16208.277
618.027	16192.298
618.155	16280.596
618.283	16198.511
618.412	16223.340
618.540	16341.149
618.668	16261.489
618.796	16329.106
618.924	16472.447
619.052	16300.660
619.180	16386.298
619.308	16411.894
619.437	16411.702
619.565	16361.681
619.693	16391.894
619.821	16451.574
619.949	16425.255
620.077	16490.170
620.205	16500.596
620.333	16473.745
620.462	16575.319
620.590	16561.106
620.718	16493.085
620.846	16580.872
620.974	16568.532
621.102	16483.404
621.230	16551.723
621.358	16728.298
621.487	16591.915
621.615	16629.170
621.743	16641.511
621.871	16674.255
621.999	16665.362
622.127	16570.128
622.255	16656.511
622.383	16637.638
622.512	16570.702
622.640	16786.830
622.768	16628.574
622.896	16632.787
623.024	16652.255
623.152	16784.213
623.280	16676.426
623.408	16561.979
623.537	16687.553
623.665	16678.426
623.793	16690.660
623.921	16658.043
624.049	16625.404
624.177	16668.915
624.305	16793.809
624.433	16741.660
624.562	16779.830
624.690	16801.213
624.818	16811.596
624.946	16947.915
625.074	16853.043
625.202	16773.298
625.330	16752.617
625.458	16866.787
625.587	16822.404
625.715	16902.234
625.843	17019.766
625.971	16896.511
626.099	16927.489
626.227	16937.872
626.355	16939.936
626.483	17009.830
626.612	16955.234
626.740	16968.489
626.868	17074.000
626.996	17070.851
627.124	17012.894
627.252	17098.064
627.380	17078.191
627.508	17185.085
627.637	17110.787
627.765	17216.064
627.893	17255.723
628.021	17258.660
628.149	17503.872
628.277	17699.106
628.405	17647.681
628.533	17421.319
628.662	17407.702
628.790	17375.277
628.918	17415.255
629.046	17481.532
629.174	17689.787
629.302	17876.128
629.430	17700.191
629.558	17650.766
629.687	17660.872
629.815	17692.596
629.943	17745.553
630.071	17750.766
630.199	17812.596
630.327	17814.851
630.455	17791.468
630.583	17987.426
630.712	17967.383
630.840	18040.894
630.968	18066.574
631.096	18005.234
631.224	18038.085
631.352	18024.702
631.480	18098.532
631.608	18155.000
631.737	18233.277
631.865	18373.936
631.993	18215.362
632.121	18337.702
632.249	18300.426
632.377	18230.553
632.505	18262.511
632.633	18172.362
632.762	18235.128
632.890	18340.170
633.018	18224.745
633.146	18367.702
633.274	18274.489
633.402	18305.043
633.530	18266.298
633.658	18437.574
633.787	18249.383
633.915	18312.383
634.043	18205.383
634.171	18320.723
634.299	18258.894
634.427	18326.298
634.555	18270.809
634.683	18209.787
634.812	18224.447
634.940	18201.638
635.068	18127.340
635.196	18194.574
635.324	18180.787
635.452	18191.851
635.580	18186.213
635.708	18027.979
635.837	18151.255
635.965	18069.511
636.093	18058.617
636.221	17973.766
636.349	18095.979
636.477	17966.170
636.605	18190.553
636.733	17932.426
636.862	17902.979
636.990	17920.340
637.118	17989.851
637.246	17965.553
637.374	17898.000
637.502	17948.468
637.630	17870.660
637.758	17865.043
637.887	17781.936
638.015	17795.404
638.143	17875.234
638.271	17735.340
638.399	17812.660
638.527	17803.617
638.655	17739.149
638.783	17885.404
638.912	17828.766
639.040	17778.638
639.168	17767.745
639.296	17714.553
639.424	17945.872
639.552	17728.872
639.680	17918.106
639.808	17810.000
639.937	17802.000
640.065	17785.340
640.193	17903.021
640.321	17813.340
640.449	17842.149
640.577	17967.404
640.705	17792.681
640.833	18008.000
640.962	17792.362
641.090	17918.362
641.218	17847.064
641.346	17934.702
641.474	17928.596
641.602	17930.574
641.730	17963.787
641.858	17998.979
641.987	18059.532
642.115	17977.723
642.243	18026.213
642.371	18002.085
642.499	18072.426
642.627	18120.404
642.755	18154.723
642.883	18169.660
643.012	18107.809
643.140	18091.404
643.268	18202.638
643.396	18173.936
643.524	18355.000
643.652	18242.128
643.780	18219.511
643.908	18302.085
644.037	18315.362
644.165	18260.064
644.293	18210.085
644.421	18319.532
644.549	18326.660
644.677	18287.319
644.805	18333.979
644.933	18242.489
645.062	18302.447
645.190	18296.723
645.318	18370.745
645.446	18289.298
645.574	18332.574
645.702	18308.894
645.830	18483.468
645.958	18280.787
646.087	18469.000
646.215	18223.957
646.343	18412.766
646.471	18302.213
646.599	18351.638
646.727	18243.426
646.855	18294.170
646.983	18262.021
647.112	18192.149
647.240	18388.298
647.368	18214.681
647.496	18248.702
647.624	18170.979
647.752	18116.064
647.880	18121.128
648.008	18136.489
648.137	18109.574
648.265	18110.851
648.393	18104.915
648.521	18072.277
648.649	18055.596
648.777	18013.298
648.905	17971.872
649.033	17927.957
649.162	17949.298
649.290	17901.213
649.418	17934.447
649.546	17924.106
649.674	17940.957
649.802	17825.149
649.930	17976.191
650.058	17852.468
650.187	17747.830
650.315	17772.064
650.443	17801.191
650.571	17788.979
650.699	17706.043
650.827	17685.894
650.955	17718.851
651.083	17739.979
651.212	17695.128
651.340	17659.191
651.468	17591.979
651.596	17543.979
651.724	17543.766
651.852	17593.213
651.980	17485.830
652.108	17576.745
652.237	17538.234
652.365	17576.702
652.493	17447.404
652.621	17483.851
652.749	17538.957
652.877	17364.298
653.005	17375.298
653.133	17359.830
653.262	17398.745
653.390	17315.957
653.518	17410.745
653.646	17352.149
653.774	17464.723
653.902	17314.128
654.030	17257.894
654.158	17232.830
654.287	17223.532
654.415	17221.191
654.543	17238.553
654.671	17232.213
654.799	17243.830
654.927	17132.319
655.055	17112.000
655.183	17128.255
655.312	17136.872
655.440	17133.809
655.568	17057.191
655.696	17104.064
655.824	17172.106
655.952	17090.319
656.080	17043.979
656.208	17114.511
656.337	17005.170
656.465	16950.957
656.593	16958.511
656.721	16866.426
656.849	16963.957
656.977	16851.766
657.105	16812.936
657.233	16764.106
657.362	16754.532
657.490	16702.447
657.618	16662.021
657.746	16742.957
657.874	16641.638
658.002	16587.128
658.130	16589.596
658.258	16541.404
658.387	16542.638
658.515	16494.936
658.643	16499.723
658.771	16500.872
658.899	16515.000
659.027	16466.553
659.155	16426.106
659.283	16550.766
659.412	16399.213
659.540	16452.468
659.668	16308.362
659.796	16314.362
659.924	16405.234
660.052	16280.340
660.180	16260.681
660.308	16264.106
660.437	16186.766
660.565	16206.979
660.693	16177.085
660.821	16104.894
660.949	16119.000
661.077	16138.979
661.205	16119.298
661.333	16065.383
661.462	16199.213
661.590	16102.170
661.718	16231.553
661.846	16114.511
661.974	16194.489
662.102	16047.511
662.230	16057.936
662.358	15947.957
662.487	15981.979
662.615	15968.702
662.743	15953.723
662.871	15956.787
662.999	15886.170
663.127	15890.298
663.255	16025.702
663.383	15941.319
663.512	15886.894
663.640	15920.894
663.768	15920.149
663.896	15977.426
664.024	15995.149
664.152	15934.617
664.280	15985.447
664.408	15932.043
664.537	16024.851
664.665	15916.596
664.793	15898.170
664.921	15874.043
665.049	15856.702
665.177	15844.404
665.305	15850.128
665.433	15825.681
665.562	15862.787
665.690	15959.574
665.818	16040.404
665.946	15875.404
666.074	15810.660
666.202	15808.766
666.330	15853.979
666.458	15844.745
666.587	15820.340
666.715	15821.511
666.843	15837.872
666.971	15757.809
667.099	15843.702
667.227	15781.957
667.355	15784.915
667.483	15780.000
667.612	15805.404
667.740	15773.489
667.868	15814.468
667.996	15772.426
668.124	15721.702
668.252	15741.383
668.380	15732.957
668.508	15690.106
668.637	15716.404
668.765	15718.723
668.893	15712.000
669.021	15649.553
669.149	15709.957
669.277	15734.021
669.405	15599.362
669.533	15616.149
669.662	15904.255
669.790	15657.064
669.918	15609.681
670.046	15553.404
670.174	15634.128
670.302	15585.702
670.430	15529.234
670.558	15528.489
670.687	15403.447
670.815	15630.362
670.943	15430.319
671.071	15416.894
671.199	15409.617
671.327	15295.064
671.455	15321.830
671.583	15245.596
671.712	15445.170
671.840	15328.702
671.968	15191.340
672.096	15226.809
672.224	15202.915
672.352	15254.298
672.480	15093.787
672.608	15053.043
672.737	14927.617
672.865	15157.660
672.993	14958.426
673.121	14854.191
673.249	14875.745
673.377	14819.660
673.505	14804.596
673.633	14711.404
673.762	14726.766
673.890	14689.617
674.018	14912.170
674.146	14641.340
674.274	14596.234
674.402	14729.064
674.530	14594.596
674.658	14567.489
674.787	14500.340
674.915	14444.000
675.043	14510.745
675.171	14444.702
675.299	14336.170
675.427	14319.851
675.555	14263.298
675.683	14273.681
675.812	14221.596
675.940	14170.319
676.068	14150.447
676.196	14136.681
676.324	14111.468
676.452	14057.255
676.580	13959.319
676.708	14005.085
676.837	14059.596
676.965	13927.213
677.093	13887.809
677.221	13880.447
677.349	13886.574
677.477	13849.915
677.605	13781.681
677.733	13805.319
677.862	13716.894
677.990	13705.021
678.118	13627.745
678.246	13654.000
678.374	13673.681
678.502	13529.596
678.630	13540.957
678.758	13553.213
678.887	13451.213
679.015	13492.915
679.143	13464.298
679.271	13457.404
679.399	13478.362
679.527	13411.128
679.655	13397.596
679.783	13418.809
679.912	13422.085
680.040	13407.149
680.168	13308.021
680.296	13336.660
680.424	13264.489
680.552	13293.298
680.680	13343.851
680.808	13277.638
680.937	13244.936
681.065	13237.681
681.193	13253.064
681.321	13194.660
681.449	13173.489
681.577	13242.426
681.705	13171.787
681.833	13121.213
681.962	13122.064
682.090	13307.426
682.218	13104.936
682.346	13096.574
682.474	13144.553
682.602	13101.979
682.730	13112.234
682.858	13068.787
682.987	13138.617
683.115	13128.638
683.243	12998.936
683.371	13030.277
683.499	13052.617
683.627	13064.596
683.755	13028.149
683.883	13184.191
684.012	13036.723
684.140	12990.213
684.268	12906.255
684.396	12991.915
684.524	13046.404
684.652	13060.170
684.780	13026.532
684.908	12990.660
685.037	12952.894
685.165	12918.745
685.293	12848.596
685.421	12977.000
685.549	12889.383
685.677	12899.553
685.805	12990.170
685.933	12941.085
686.062	12847.191
686.190	12823.957
686.318	12853.213
686.446	12809.809
686.574	12801.830
686.702	12907.872
686.830	12759.851
686.958	12734.638
687.087	12802.787
687.215	12787.064
687.343	12740.617
687.471	12720.021
687.599	12658.830
687.727	12863.723
687.855	12710.298
687.983	12749.255
688.112	12743.745
688.240	12659.064
688.368	12637.404
688.496	12634.043
688.624	12668.574
688.752	12519.255
688.880	12571.404
689.008	12526.298
689.137	12562.383
689.265	12446.851
689.393	12469.979
689.521	12406.936
689.649	12458.340
689.777	12435.872
689.905	12354.851
690.033	12374.255
690.162	12323.383
690.290	12312.383
690.418	12319.851
690.546	12402.894
690.674	12333.426
690.802	12203.638
690.930	12256.957
691.058	12235.894
691.187	12148.426
691.315	12137.489
691.443	12241.979
691.571	12114.234
691.699	12101.851
691.827	12134.745
691.955	12045.426
692.083	12025.766
692.212	12168.553
692.340	12021.660
692.468	11974.574
692.596	11951.872
692.724	12043.702
692.852	11894.404
692.980	11957.894
693.108	11907.277
693.237	11821.298
693.365	11786.298
693.493	11742.170
693.621	11757.404
693.749	11718.213
693.877	11700.319
694.005	11782.660
694.133	11668.426
694.262	11699.426
694.390	11600.255
694.518	11617.702
694.646	11578.000
694.774	11581.255
694.902	11655.426
695.030	11617.085
695.158	11516.809
695.287	11479.702
695.415	11499.617
695.543	11413.468
695.671	11556.213
695.799	11493.191
695.927	11423.532
696.055	11420.979
696.183	11368.596
696.312	11368.170
696.440	11517.191
696.568	11465.745
696.696	11384.085
696.824	11273.043
696.952	11264.170
697.080	11235.979
697.208	11175.106
697.337	11294.298
697.465	11190.596
697.593	11180.298
697.721	11166.064
697.849	11189.957
697.977	11182.702
698.105	11186.319
698.233	11066.894
698.362	11159.723
698.490	11075.319
698.618	11108.106
698.746	11136.362
698.874	11057.638
699.002	11283.191
699.130	10997.681
699.258	11041.106
699.387	10924.298
699.515	11014.000
699.643	10956.936
699.771	11000.532
699.899	10902.809
700.027	10948.787
700.155	10836.149
700.283	10839.000
700.412	10898.489
700.540	10821.404
700.668	10799.149
700.796	10757.234
700.924	10756.894
701.052	10709.532
701.180	10831.596
701.308	10710.191
701.437	10641.021
701.565	10603.702
701.693	10564.809
701.821	10571.277
701.949	10585.702
702.077	10557.766
702.205	10489.468
702.333	10459.213
702.462	10444.298
702.590	10429.021
702.718	10410.021
702.846	10361.702
702.974	10293.617
703.102	10359.787
703.230	10350.915
703.358	10316.936
703.487	10211.128
703.615	10364.170
703.743	10177.000
703.871	10118.681
703.999	10171.979
704.127	10229.340
704.255	10021.468
704.383	10168.043
704.512	10045.426
704.640	10003.638
704.768	9921.404
704.896	10037.489
705.024	9888.128
705.152	9932.809
705.280	9864.340
705.408	9821.489
705.537	9776.702
705.665	9674.404
705.793	9721.745
705.921	9699.255
706.049	9690.447
706.177	9620.277
706.305	9630.383
706.433	9709.596
706.562	9547.936
706.690	9560.234
706.818	9497.745
706.946	9723.681
707.074	9490.468
707.202	9412.489
707.330	9490.170
707.458	9430.596
707.587	9386.319
707.715	9340.255
707.843	9389.298
707.971	9379.362
708.099	9394.085
708.227	9296.298
708.355	9218.000
708.483	9228.064
708.612	9193.830
708.740	9248.766
708.868	9292.681
708.996	9204.468
709.124	9206.085
709.252	9134.787
709.380	9097.085
709.508	9106.915
709.637	9073.234
709.765	9028.809
709.893	9067.149
710.021	9080.000
710.149	8974.638
710.277	9057.894
710.405	8954.468
710.533	8995.277
710.662	8920.383
710.790	8932.936
710.918	8969.936
711.046	8947.234
711.174	8917.660
711.302	8926.426
711.430	9004.660
711.558	8840.000
711.687	8858.255
711.815	8831.894
711.943	8821.723
712.071	8849.362
712.199	8878.319
712.327	8837.830
712.455	8779.383
712.583	8857.426
712.712	8770.383
712.840	8773.106
712.968	8738.553
713.096	8794.596
713.224	8713.787
713.352	8738.426
713.480	8741.447
713.608	8718.489
713.737	8705.638
713.865	8712.681
713.993	8714.340
714.121	8636.128
714.249	8654.277
714.377	8734.404
714.505	8695.787
714.633	8794.085
714.762	8683.000
714.890	8624.319
715.018	8642.702
715.146	8676.319
715.274	8661.340
715.402	8746.979
715.530	8644.170
715.658	8555.872
715.787	8619.191
715.915	8715.340
716.043	8520.277
716.171	8597.170
716.299	8608.064
716.427	8541.787
716.555	8510.830
716.683	8486.894
716.812	8477.787
716.940	8526.702
717.068	8392.745
717.196	8601.872
717.324	8518.489
717.452	8449.723
717.580	8386.511
717.708	8405.574
717.837	8384.383
717.965	8332.681
718.093	8351.745
718.221	8303.191
718.349	8359.021
718.477	8351.468
718.605	8336.064
718.733	8288.723
718.862	8251.404
718.990	8213.766
719.118	8213.170
719.246	8181.191
719.374	8286.766
719.502	8188.511
719.630	8296.872
719.758	8093.851
719.887	8106.064
720.015	8260.979
720.143	8054.234
720.271	8029.553
720.399	8105.447
720.527	8078.234
720.655	8045.340
720.783	8089.085
720.912	7958.574
721.040	7997.915
721.168	7939.723
721.296	7972.234
721.424	7925.085
721.552	7794.894
721.680	7833.255
721.808	7845.128
721.937	7868.426
722.065	7896.021
722.193	7916.638
722.321	7778.319
722.449	7734.787
722.577	7705.340
722.705	7679.681
722.833	7693.021
722.962	7693.553
723.090	7578.894
723.218	7529.489
723.346	7565.447
723.474	7541.043
723.602	7661.702
723.730	7564.170
723.858	7695.681
723.987	7514.660
724.115	7559.021
724.243	7443.830
724.371	7481.106
724.499	7447.787
724.627	7325.298
724.755	7326.894
724.883	7325.936
725.012	7351.000
725.140	7346.191
725.268	7263.064
725.396	7232.660
725.524	7210.000
725.652	7243.723
725.780	7183.745
725.908	7239.064
726.037	7330.979
726.165	7134.766
726.293	7076.000
726.421	7062.106
726.549	7033.213
726.677	7024.043
726.805	7027.660
726.933	6986.957
727.062	7048.830
727.190	6997.511
727.318	6945.340
727.446	6948.404
727.574	6921.383
727.702	7022.979
727.830	6865.277
727.958	6954.979
728.087	6869.383
728.215	6963.362
728.343	6914.426
728.471	6816.617
728.599	6765.574
728.727	6892.872
728.855	6709.617
728.983	6715.809
729.112	6719.787
729.240	6684.298
729.368	6706.064
729.496	6731.723
729.624	6675.851
729.752	6662.404
729.880	6655.191
730.008	6616.957
730.137	6607.617
730.265	6820.745
730.393	6571.702
730.521	6721.277
730.649	6535.851
730.777	6544.170
730.905	6507.383
731.033	6570.851
731.162	6753.468
731.290	6635.787
731.418	6718.362
731.546	6643.596
731.674	6539.234
731.802	6500.319
731.930	6424.426
732.058	6403.191
732.187	6374.894
732.315	6360.957
732.443	6397.213
732.571	6511.532
732.699	6423.723
732.827	6389.043
732.955	6289.319
733.083	6292.255
733.212	6349.426
733.340	6354.532
733.468	6366.426
733.596	6267.766
733.724	6280.596
733.852	6232.213
733.980	6228.426
734.108	6405.702
734.237	6316.574
734.365	6291.702
734.493	6156.574
734.621	6174.979
734.749	6168.702
734.877	6183.043
735.005	6186.021
735.133	6188.426
735.262	6253.915
735.390	6099.617
735.518	6247.340
735.646	6055.064
735.774	6078.149
735.902	6083.766
736.030	6015.851
736.158	6067.340
736.287	6019.468
736.415	6187.830
736.543	6040.000
736.671	5945.766
736.799	5972.766
736.927	6013.596
737.055	5956.468
737.183	6065.511
737.312	6022.511
737.440	5985.489
737.568	5950.340
737.696	5880.617
737.824	5916.830
737.952	5905.000
738.080	5868.851
738.208	5882.128
738.337	5853.723
738.465	5857.638
738.593	5797.106
738.721	5772.149
738.849	5806.277
738.977	5779.553
739.105	5787.894
739.233	5715.617
739.362	5773.149
739.490	5685.362
739.618	5634.149
739.746	5673.234
739.874	5842.298
740.002	5733.043
740.130	5703.872
740.258	5557.298
740.387	5532.596
740.515	5672.766
740.643	5470.021
740.771	5560.447
740.899	5532.809
741.027	5579.787
741.155	5588.319
741.283	5416.851
741.412	5380.532
741.540	5465.213
741.668	5512.851
741.796	5508.681
741.924	5425.511
742.052	5335.660
742.180	5487.043
742.308	5309.745
742.437	5312.489
742.565	5409.702
742.693	5476.426
742.821	5369.957
742.949	5288.894
743.077	5214.404
743.205	5198.000
743.333	5224.085
743.462	5165.085
743.590	5187.064
743.718	5094.979
743.846	5104.532
743.974	5136.872
744.102	5228.489
744.230	5115.234
744.358	5047.660
744.487	4984.787
744.615	5003.872
744.743	4928.936
744.871	4904.106
744.999	5036.255
745.127	4971.936
745.255	4859.191
745.383	4880.426
745.512	4917.319
745.640	4838.830
745.768	4824.574
745.896	4837.851
746.024	4760.766
746.152	4769.277
746.280	4720.426
746.408	4768.553
746.537	4784.043
746.665	4710.340
746.793	4717.255
746.921	4620.702
747.049	4812.872
747.177	4677.681
747.305	4659.766
747.433	4666.170
747.562	4555.426
747.690	4602.362
747.818	4549.957
747.946	4507.574
748.074	4603.043
748.202	4518.745
748.330	4581.000
748.458	4465.000
748.587	4429.702
748.715	4365.532
748.843	4431.489
748.971	4405.191
749.099	4407.447
749.227	4350.426
749.355	4290.383
749.483	4304.511
749.612	4297.149
749.740	4311.638
749.868	4338.872
749.996	4239.596
750.124	4188.128
750.252	4225.936
750.380	4176.851
750.508	4201.617
750.637	4155.681
750.765	4205.617
750.893	4130.468
751.021	4088.298
751.149	4285.532
751.277	4145.213
751.405	4095.277
751.533	4169.234
751.662	4135.596
751.790	4134.553
751.918	4055.404
752.046	3992.702
752.174	3923.936
752.302	4140.468
752.430	3988.277
752.558	3908.681
752.687	3860.106
752.815	3872.468
752.943	3987.128
753.071	3930.596
753.199	3801.957
753.327	3864.234
753.455	3915.085
753.583	3793.106
753.712	3792.468
753.840	3717.660
753.968	3769.851
754.096	3677.043
754.224	3641.872
754.352	3625.574
754.480	3628.149
754.608	3593.809
754.737	3571.255
754.865	3663.043
754.993	3571.596
755.121	3457.745
755.249	3544.213
755.377	3496.787
755.505	3455.660
755.633	3497.404
755.762	3412.553
755.890	3547.617
756.018	3554.766
756.146	3540.255
756.274	3406.745
756.402	3329.702
756.530	3337.511
756.658	3306.660
756.787	3321.170
756.915	3268.404
757.043	3333.468
757.171	3238.723
757.299	3177.085
757.427	3235.745
757.555	3178.915
757.683	3230.298
757.812	3116.255
757.940	3139.638
758.068	3261.447
758.196	3232.681
758.324	3039.170
758.452	3173.936
758.580	3145.596
758.708	2994.213
758.837	2950.723
758.965	3058.745
759.093	3108.979
759.221	2913.362
759.349	2902.043
759.477	3026.170
759.605	2922.298
759.733	2864.787
759.862	2864.809
759.990	2783.085
760.118	2798.553
760.246	2754.489
760.374	2952.894
760.502	2743.809
760.630	2698.191
760.758	2740.362
760.887	2653.170
761.015	2758.021
761.143	2639.553
761.271	2644.681
761.399	2593.596
761.527	2600.617
761.655	2648.149
761.783	2606.617
761.912	2546.596
762.040	2546.574
762.168	2578.255
762.296	2535.447
762.424	2515.170
762.552	2538.617
762.680	2599.617
762.808	2490.149
762.937	2467.723
763.065	2534.532
763.193	2503.809
763.321	2461.255
763.449	2445.638
763.577	2443.723
763.705	2416.447
763.833	2494.447
763.962	2397.702
764.090	2378.702
764.218	2378.298
764.346	2381.936
764.474	2319.340
764.602	2334.702
764.730	2314.319
764.858	2328.128
764.987	2315.085
765.115	2331.468
765.243	2251.447
765.371	2263.489
765.499	2220.723
765.627	2221.319
765.755	2196.106
765.883	2227.362
766.012	2219.128
766.140	2180.340
766.268	2171.915
766.396	2144.043
766.524	2167.723
766.652	2139.553
766.780	2134.383
766.908	2109.340
767.037	2127.468
767.165	2099.191
767.293	2153.149
767.421	2079.532
767.549	2069.468
767.677	2087.447
767.805	2056.043
767.933	2048.745
768.062	2061.702
768.190	2041.106
768.318	2029.362
768.446	2022.064
768.574	2018.085
768.702	2017.085
768.830	1978.213
768.958	1969.532
769.087	1943.000
769.215	1956.957
769.343	1937.468
769.471	1923.064
769.599	1962.553
769.727	1917.085
769.855	1937.043
769.983	1900.511
770.112	1872.234
770.240	1873.915
770.368	1870.362
770.496	1833.532
770.624	1850.043
770.752	1863.000
770.880	1873.191
771.008	1843.957
771.137	1841.702
771.265	1866.447
771.393	1833.021
771.521	1802.638
771.649	1791.787
771.777	1801.340
771.905	1776.809
772.033	1763.319
772.162	1799.745
772.290	1751.830
772.418	1800.170
772.546	1760.511
772.674	1743.298
772.802	1762.979
772.930	1779.915
773.058	1729.851
773.187	1718.213
773.315	1697.149
773.443	1716.255
773.571	1674.255
773.699	1678.979
773.827	1666.617
773.955	1724.468
774.083	1690.681
774.212	1655.149
774.340	1669.234
774.468	1646.574
774.596	1646.830
774.724	1631.915
774.852	1617.149
774.980	1612.340
775.108	1605.489
775.237	1601.596
775.365	1612.830
775.493	1591.000
775.621	1580.213
775.749	1586.447
775.877	1568.426
776.005	1556.553
776.133	1581.021
776.262	1567.702
776.390	1521.511
776.518	1563.915
776.646	1506.234
776.774	1538.617
776.902	1508.574
777.030	1510.872
777.158	1521.936
777.287	1501.298
777.415	1473.915
777.543	1491.851
777.671	1463.191
777.799	1432.553
777.927	1452.511
778.055	1460.170
778.183	1453.468
778.312	1408.830
778.440	1419.191
778.568	1422.362
778.696	1393.660
778.824	1411.106
778.952	1395.872
779.080	1386.617
779.208	1423.000
779.337	1396.511
779.465	1373.362
779.593	1362.064
779.721	1371.574
779.849	1354.213
779.977	1333.213
780.105	1306.681
780.233	1348.936
780.362	1353.553
780.490	1362.830
780.618	1309.447
780.746	1313.319
780.874	1285.723
781.002	1294.809
781.130	1261.043
781.258	1248.000
781.387	1267.447
781.515	1285.936
781.643	1244.745
781.771	1290.170
781.899	1238.468
782.027	1283.213
782.155	1242.319
782.283	1224.787
782.412	1195.277
782.540	1211.277
782.668	1232.489
782.796	1186.000
782.924	1205.000
783.052	1172.660
783.180	1213.957
783.308	1179.617
783.437	1173.149
783.565	1160.511
783.693	1164.809
783.821	1167.298
783.949	1132.085
784.077	1171.596
784.205	1129.043
784.333	1178.340
784.462	1101.298
784.590	1104.085
784.718	1126.298
784.846	1084.532
784.974	1122.319
785.102	1126.489
785.230	1085.766
785.358	1129.468
785.487	1091.787
785.615	1079.957
785.743	1064.660
785.871	1077.234
785.999	1041.851
786.127	1023.957
786.255	1057.915
786.383	1063.213
786.512	1068.085
786.640	1041.660
786.768	1044.021
786.896	1020.213
787.024	1020.638
787.152	1009.021
787.280	1016.319
787.408	987.447
787.537	1025.000
787.665	989.660
787.793	1007.979
787.921	991.979
788.049	992.000
788.177	961.021
788.305	965.872
788.433	993.872
788.562	949.957
788.690	956.638
788.818	957.894
788.946	944.000
789.074	925.660
789.202	935.809
789.330	946.872
789.458	927.702
789.587	968.596
789.715	916.085
789.843	915.830
789.971	898.000
790.099	898.106
790.227	898.660
790.355	879.468
790.483	908.383
790.612	878.574
790.740	881.681
790.868	889.745
790.996	867.362
791.124	872.681
791.252	850.979
791.380	870.468
791.508	868.319
791.637	829.532
791.765	839.234
791.893	837.766
792.021	836.596
792.149	840.021
792.277	836.511
792.405	813.681
792.533	852.660
792.662	789.170
792.790	800.979
792.918	824.170
793.046	793.638
793.174	817.553
793.302	800.617
793.430	794.723
793.558	777.468
793.687	793.128
793.815	776.362
793.943	795.489
794.071	791.319
794.199	755.489
794.327	761.809
794.455	841.872
794.583	844.191
794.712	740.319
794.840	743.468
794.968	755.787
795.096	758.979
795.224	716.872
795.352	733.915
795.480	751.787
795.608	726.596
795.737	724.936
795.865	700.511
795.993	687.915
796.121	684.277
796.249	702.957
796.377	707.872
796.505	695.511
796.633	668.851
796.762	678.064
796.890	686.128
797.018	696.511
797.146	662.383
797.274	656.298
797.402	664.319
797.530	669.426
797.658	647.319
797.787	694.979
797.915	641.957
798.043	678.809
798.171	636.426
798.299	639.872
798.427	630.468
798.555	640.149
798.683	618.681
798.812	634.532
798.940	682.872
799.068	624.702
799.196	642.234
799.324	605.787
799.452	624.872
799.580	597.213
799.708	658.489
799.837	585.191
799.965	589.617
800.093	620.170
800.221	564.894
800.349	589.766
800.477	583.745
800.605	581.213
800.733	586.000
800.862	579.851
800.990	606.234
801.118	555.532
801.246	560.723
801.374	578.426
801.502	562.702
801.630	551.362
801.758	561.872
801.887	575.979
802.015	538.340
802.143	532.553
802.271	554.106
802.399	540.702
802.527	527.426
802.655	569.596
802.783	576.085
802.912	534.617
803.040	526.532
803.168	517.553
803.296	501.128
803.424	521.532
803.552	517.319
803.680	523.723
803.808	521.787
803.937	512.681
804.065	506.064
804.193	511.170
804.321	544.532
804.449	485.617
804.577	499.149
804.705	498.277
804.833	523.447
804.962	475.553
805.090	492.660
805.218	496.851
805.346	494.638
805.474	493.638
805.602	506.340
805.730	485.830
805.858	472.702
805.987	482.340
806.115	485.128
806.243	480.340
806.371	506.489
806.499	579.702
806.627	586.830
806.755	571.809
806.883	476.277
807.012	455.106
807.140	487.851
807.268	474.957
807.396	470.383
807.524	440.426
807.652	456.043
807.780	512.447
807.908	437.255
808.037	499.532
808.165	476.851
808.293	450.936
808.421	488.915
808.549	431.362
808.677	437.830
808.805	480.043
808.933	441.681
809.062	462.532
809.190	496.043
809.318	438.255
809.446	431.106
809.574	475.404
809.702	422.298
809.830	439.766
809.958	438.660
810.087	432.766
810.215	448.170
810.343	428.106
810.471	428.234
810.599	418.000
810.727	413.617
810.855	396.340
810.983	406.362
811.112	416.149
811.240	411.191
811.368	418.043
811.496	449.617
811.624	414.447
811.752	407.085
811.880	411.191
812.008	393.745
812.137	413.128
812.265	382.596
812.393	417.851
812.521	417.021
812.649	398.404
812.777	389.872
812.905	421.979
813.033	376.362
813.162	377.809
813.290	384.298
813.418	403.681
813.546	378.660
813.674	378.766
813.802	389.957
813.930	366.426
814.058	377.979
814.187	388.745
814.315	371.957
814.443	389.532
814.571	392.426
814.699	403.149
814.827	369.340
814.955	366.745
815.083	394.149
815.212	396.191
815.340	393.277
815.468	361.979
815.596	366.596
815.724	373.489
815.852	357.766
815.980	361.532
816.108	355.809
816.237	357.340
816.365	368.426
816.493	373.319
816.621	345.383
816.749	361.681
816.877	370.511
817.005	378.511
817.133	368.426
817.262	342.979
817.390	355.426
817.518	344.596
817.646	361.915
817.774	341.106
817.902	339.383
818.030	342.404
818.158	376.702
818.287	360.617
818.415	331.894
818.543	345.404
818.671	363.362
818.799	329.319
818.927	346.681
819.055	357.298
819.183	329.489
819.312	330.553
819.440	327.617
819.568	329.106
819.696	334.915
819.824	351.702
819.952	320.766
820.080	339.553
820.208	327.128
820.337	325.511
820.465	366.404
820.593	328.021
820.721	331.553
820.849	331.915
820.977	319.277
821.105	333.298
821.233	298.553
821.362	346.191
821.490	307.319
821.618	320.766
821.746	307.745
821.874	324.681
822.002	319.277
822.130	317.298
822.258	303.830
822.387	306.489
822.515	331.894
822.643	321.596
822.771	322.447
822.899	310.021
823.027	349.191
823.155	298.957
823.283	302.787
823.412	308.979
823.540	308.638
823.668	360.255
823.796	306.064
823.924	332.511
824.052	335.255
824.180	317.915
824.308	304.681
824.437	295.426
824.565	301.277
824.693	322.723
824.821	312.234
824.949	307.255
825.077	298.043
825.205	335.106
825.333	312.426
825.462	321.340
825.590	300.085
825.718	320.894
825.846	293.830
825.974	291.362
826.102	296.085
826.230	292.362
826.358	303.362
826.487	284.766
826.615	330.319
826.743	283.553
826.871	311.872
826.999	345.447
827.127	305.553
827.255	304.447
827.383	289.681
827.512	316.234
827.640	285.170
827.768	280.809
827.896	293.128
828.024	290.872
828.152	286.234
828.280	285.532
828.408	282.766
828.537	282.851
828.665	293.426
828.793	288.957
828.921	276.362
829.049	300.426
829.177	279.043
829.305	272.915
829.433	289.255
829.562	296.298
829.690	268.340
829.818	309.404
829.946	282.660
830.074	287.128
830.202	303.809
830.330	299.106
830.458	321.787
830.587	279.319
830.715	285.766
830.843	279.234
830.971	289.021
831.099	298.681
831.227	267.660
831.355	272.809
831.483	291.255
831.612	304.383
831.740	269.468
831.868	284.170
831.996	271.447
832.124	274.532
832.252	251.000
832.380	282.128
832.508	324.745
832.637	271.809
832.765	274.702
832.893	309.851
833.021	267.234
833.149	268.191
833.277	277.809
833.405	272.596
833.533	262.915
833.662	271.021
833.790	267.681
833.918	283.596
834.046	311.872
834.174	274.745
834.302	263.894
834.430	260.723
834.558	271.128
834.687	279.638
834.815	253.468
834.943	265.979
835.071	274.298
835.199	270.340
835.327	288.553
835.455	262.106
835.583	297.383
835.712	254.489
835.840	259.021
835.968	262.170
836.096	313.043
836.224	276.447
836.352	253.426
836.480	276.106
836.608	272.021
836.737	254.936
836.865	256.340
836.993	269.681
837.121	271.383
837.249	258.830
837.377	279.702
837.505	268.255
837.633	258.702
837.762	259.489
837.890	292.936
838.018	287.000
838.146	300.787
838.274	270.128
838.402	284.021
838.530	252.915
838.658	244.574
838.787	275.021
838.915	260.872
839.043	244.851
839.171	280.979
839.299	241.298
839.427	255.979
839.555	267.170
839.683	272.511
839.812	282.021
839.940	246.915
840.068	270.149
840.196	267.723
840.324	254.574
840.452	258.979
840.580	290.213
840.708	259.468
840.837	284.170
840.965	246.170
841.093	258.553
841.221	255.128
841.349	257.702
841.477	261.170
841.605	266.064
841.733	249.085
841.862	262.149
841.990	309.638
842.118	238.723
842.246	250.553
842.374	247.915
842.502	233.149
842.630	266.340
842.758	276.702
842.887	240.064
843.015	248.638
843.143	274.511
843.271	249.596
843.399	291.298
843.527	268.255
843.655	234.021
843.783	254.532
843.912	244.681
844.040	276.191
844.168	238.574
844.296	243.766
844.424	244.085
844.552	265.106
844.680	266.894
844.808	269.809
844.937	252.447
845.065	247.298
845.193	269.894
845.321	247.681
845.449	247.255
845.577	246.447
845.705	245.787
845.833	240.000
845.962	254.894
846.090	236.894
846.218	252.574
846.346	258.766
846.474	255.723
846.602	246.404
846.730	282.043
846.858	258.745
846.987	247.766
847.115	234.234
847.243	267.957
847.371	256.936
847.499	264.064
847.627	247.596
847.755	240.809
847.883	255.106
848.012	253.043
848.140	248.489
848.268	262.255
848.396	238.021
848.524	264.617
848.652	226.660
848.780	239.553
848.908	249.383
849.037	238.511
849.165	258.979
849.293	250.596
849.421	261.000
849.549	247.702
849.677	251.021
849.805	254.468
849.933	245.851
850.062	237.298
850.190	239.000
850.318	251.809
850.446	242.213
850.574	237.191
850.702	246.191
850.830	239.234
850.958	255.936
851.087	229.426
851.215	255.532
851.343	235.553
851.471	236.298
851.599	246.106
851.727	239.723
851.855	294.277
851.983	256.638
852.112	243.319
852.240	242.447
852.368	242.404
852.496	233.319
852.624	235.085
852.752	241.809
852.880	219.043
853.008	241.574
853.137	250.787
853.265	255.915
853.393	239.574
853.521	255.298
853.649	247.915
853.777	230.574
853.905	253.809
854.033	240.809
854.162	292.426
854.290	238.362
854.418	230.979
854.546	237.298
854.674	338.681
854.802	236.553
854.930	225.596
855.058	222.234
855.187	220.617
855.315	260.468
855.443	218.766
855.571	228.574
855.699	234.404
855.827	237.851
855.955	233.043
856.083	243.830
856.212	241.979
856.340	230.170
856.468	281.936
856.596	257.000
856.724	244.043
856.852	235.957
856.980	231.872
857.108	246.872
857.237	225.383
857.365	259.064
857.493	233.851
857.621	225.702
857.749	242.170
857.877	247.915
858.005	252.170
858.133	242.596
858.262	234.447
858.390	230.851
858.518	214.596
858.646	227.766
858.774	228.064
858.902	212.106
859.030	230.915
859.158	251.213
859.287	241.021
859.415	261.809
859.543	225.979
859.671	225.085
859.799	256.809
859.927	237.894
860.055	238.234
860.183	244.128
860.312	231.702
860.440	242.255
860.568	235.872
860.696	224.936
860.824	298.447
860.952	274.915
861.080	244.979
861.208	237.830
861.337	245.915
861.465	262.851
861.593	262.681
861.721	227.787
861.849	231.638
861.977	220.681
862.105	240.766
862.233	261.255
862.362	243.383
862.490	258.979
862.618	224.915
862.746	234.340
862.874	228.298
863.002	224.936
863.130	256.787
863.258	237.362
863.387	251.234
863.515	251.574
863.643	244.894
863.771	302.362
863.899	234.085
864.027	228.298
864.155	223.617
864.283	258.468
864.412	234.404
864.540	228.106
864.668	223.957
864.796	235.511
864.924	229.234
865.052	239.191
865.180	227.277
865.308	210.149
865.437	239.660
865.565	241.064
865.693	266.426
865.821	241.213
865.949	259.574
866.077	230.553
866.205	246.830
866.333	244.447
866.462	222.532
866.590	235.574
866.718	246.809
866.846	230.894
866.974	243.021
867.102	247.574
867.230	266.872
867.358	236.617
867.487	223.809
867.615	252.319
867.743	240.064
867.871	241.213
867.999	239.702
868.127	223.766
868.255	278.872
868.383	279.255
868.512	231.043
868.640	230.319
868.768	220.617
868.896	214.681
869.024	260.745
869.152	231.872
869.280	239.447
869.408	265.574
869.537	225.894
869.665	300.149
869.793	221.979
869.921	263.213
870.049	236.766
870.177	243.617
870.305	275.957
870.433	219.702
870.562	244.489
870.690	218.511
870.818	229.021
870.946	240.000
871.074	264.936
871.202	242.447
871.330	251.085
871.458	206.021
871.587	227.702
871.715	234.340
871.843	224.000
871.971	228.043
872.099	236.957
872.227	222.745
872.355	241.106
872.483	237.404
872.612	238.191
872.740	238.745
872.868	225.617
872.996	229.745
873.124	228.979
873.252	224.085
873.380	230.128
873.508	221.660
873.637	243.681
873.765	225.000
873.893	280.745
874.021	240.596
874.149	224.511
874.277	236.340
874.405	228.106
874.533	234.766
874.662	1128.979
874.790	237.340
874.918	271.191
875.046	247.702
875.174	241.553
875.302	215.043
875.430	269.213
875.558	239.617
875.687	246.617
875.815	229.170
875.943	224.553
876.071	248.489
876.199	254.170
876.327	268.000
876.455	228.489
876.583	257.043
876.712	227.532
876.840	237.894
876.968	269.170
877.096	227.596
877.224	219.766
877.352	279.532
877.480	225.106
877.608	239.489
877.737	240.532
877.865	228.830
877.993	250.319
878.121	211.277
878.249	223.851
878.377	224.787
878.505	233.979
878.633	240.043
878.762	229.489
878.890	222.383
879.018	293.936
879.146	229.426
879.274	219.723
879.402	246.426
879.530	233.064
879.658	216.191
879.787	228.213
879.915	222.957
880.043	257.468
880.171	215.511
880.299	246.766
880.427	237.872
880.555	231.532
880.683	255.766
880.812	219.362
880.940	258.128
881.068	215.745
881.196	224.064
881.324	240.532
881.452	222.128
881.580	253.234
881.708	250.298
881.837	234.596
881.965	244.277
882.093	244.489
882.221	224.191
882.349	268.404
882.477	247.234
882.605	236.298
882.733	221.532
882.862	261.000
882.990	237.936
883.118	228.745
883.246	233.979
883.374	228.426
883.502	226.426
883.630	218.426
883.758	233.745
883.887	238.766
884.015	214.106
884.143	228.213
884.271	241.319
884.399	220.553
884.527	232.596
884.655	211.128
884.783	241.319
884.912	251.596
885.040	218.660
885.168	300.340
885.296	224.000
885.424	239.979
885.552	245.574
885.680	235.660
885.808	220.447
885.937	239.021
886.065	242.447
886.193	225.362
886.321	262.702
886.449	221.170
886.577	276.021
886.705	221.234
886.833	216.128
886.962	227.170
887.090	229.936
887.218	235.596
887.346	247.872
887.474	265.362
887.602	242.915
887.730	244.532
887.858	257.149
887.987	229.298
888.115	267.149
888.243	235.766
888.371	237.043
888.499	227.362
888.627	243.723
888.755	236.213
888.883	227.128
889.012	224.170
889.140	228.809
889.268	247.383
889.396	236.255
889.524	231.277
889.652	218.000
889.780	210.383
889.908	256.021
890.037	217.362
890.165	218.574
890.293	249.532
890.421	283.383
890.549	242.085
890.677	230.255
890.805	223.851
890.933	252.383
891.062	231.596
891.190	229.064
891.318	238.298
891.446	227.745
891.574	223.596
891.702	227.383
891.830	225.000
891.958	264.745
892.087	264.872
892.215	243.894
892.343	237.085
892.471	239.809
892.599	227.851
892.727	254.043
892.855	220.298
892.983	215.383
893.112	228.745
893.240	220.957
893.368	259.000
893.496	227.660
893.624	238.745
893.752	288.787
893.880	272.170
894.008	210.277
894.137	234.936
894.265	233.979
894.393	235.106
894.521	224.894
894.649	250.000
894.777	234.128
894.905	213.511
895.033	260.553
895.162	223.787
895.290	266.064
895.418	243.638
895.546	245.255
895.674	309.745
895.802	225.766
895.930	243.617
896.058	212.043
896.187	224.723
896.315	225.234
896.443	227.702
896.571	235.191
896.699	230.638
896.827	240.702
896.955	239.106
897.083	222.000
897.212	264.426
897.340	225.340
897.468	211.766
897.596	227.404
897.724	271.085
897.852	241.723
897.980	232.426
898.108	236.106
898.237	222.404
898.365	221.170
898.493	236.447
898.621	228.851
898.749	232.787
898.877	239.170
899.005	209.915
899.133	221.468
899.262	241.894
899.390	260.298
899.518	231.766
899.646	228.894
899.774	253.149
899.902	308.064
900.030	245.681
900.158	229.255
900.287	242.532
900.415	208.553
900.543	231.936
900.671	231.489
900.799	256.596
900.927	226.213
901.055	218.021
901.183	230.979
901.312	254.447
901.440	244.234
901.568	243.128
901.696	239.660
901.824	242.213
901.952	240.277
902.080	351.106
902.208	261.362
902.337	226.638
902.465	236.426
902.593	229.234
902.721	233.681
902.849	241.660
902.977	245.574
903.105	231.064
903.233	255.851
903.362	234.170
903.490	251.064
903.618	229.319
903.746	250.170
903.874	216.745
904.002	236.064
904.130	239.553
904.258	248.340
904.387	224.766
904.515	248.617
904.643	212.957
904.771	229.255
904.899	242.128
905.027	254.915
905.155	239.872
905.283	231.745
905.412	257.872
905.540	230.830
905.668	231.000
905.796	231.511
905.924	233.255
906.052	236.915
906.180	251.489
906.308	244.170
906.437	261.936
906.565	236.404
906.693	243.574
906.821	217.340
906.949	231.511
907.077	246.447
907.205	240.106
907.333	241.085
907.462	228.617
907.590	227.447
907.718	248.957
907.846	271.468
907.974	228.745
908.102	240.511
908.230	261.872
908.358	273.979
908.487	240.128
908.615	246.979
908.743	245.468
908.871	288.809
908.999	234.213
909.127	262.362
909.255	220.213
909.383	227.851
909.512	265.149
909.640	242.043
909.768	239.553
909.896	287.574
910.024	253.085
910.152	253.553
910.280	281.128
910.408	234.000
910.537	236.277
910.665	265.468
910.793	246.255
910.921	256.277
911.049	229.064
911.177	225.106
911.305	251.532
911.433	245.043
911.562	242.468
911.690	246.319
911.818	298.128
911.946	239.255
912.074	258.021
912.202	278.596
912.330	244.745
912.458	245.404
912.587	258.277
912.715	263.085
912.843	271.149
912.971	260.787
913.099	281.319
913.227	268.021
913.355	245.957
913.483	264.106
913.612	258.787
913.740	380.106
913.868	255.532
