0pol_70_130_at_750.00nm_cut_at_984.50Y_02.dat
24.04.2023
10:55:40
cut middle at Y: 984.50
top cursor: 1008 down cursor: 961 mean of: 47 lines , 2560 datapoints
wavelength(nm)	intensity[arb. units]
585.996	11655.511
586.124	11393.213
586.252	11282.957
586.380	11317.000
586.508	11408.426
586.637	11462.809
586.765	11508.128
586.893	11562.383
587.021	11575.085
587.149	11612.809
587.277	11600.043
587.405	11666.277
587.533	11573.660
587.662	11800.660
587.790	11763.106
587.918	11648.000
588.046	11721.723
588.174	11658.064
588.302	11739.638
588.430	11671.234
588.558	11649.106
588.687	11731.064
588.815	11704.213
588.943	11607.851
589.071	11687.553
589.199	11711.170
589.327	11716.085
589.455	11654.532
589.583	11767.106
589.712	11772.872
589.840	11717.915
589.968	11719.128
590.096	11704.723
590.224	11752.277
590.352	11748.298
590.480	11749.702
590.608	11751.191
590.737	11786.830
590.865	11801.872
590.993	11718.830
591.121	11800.149
591.249	11834.979
591.377	11780.426
591.505	11775.532
591.633	11829.255
591.762	11753.085
591.890	11962.681
592.018	11814.447
592.146	11812.298
592.274	11860.064
592.402	11864.745
592.530	11799.064
592.658	12094.340
592.787	11929.957
592.915	12094.170
593.043	11950.426
593.171	12034.830
593.299	12057.702
593.427	12055.894
593.555	12088.489
593.683	12106.128
593.812	12136.128
593.940	12152.660
594.068	12157.745
594.196	12300.191
594.324	12238.149
594.452	12272.596
594.580	12302.064
594.708	12280.213
594.837	12299.830
594.965	12367.447
595.093	12432.234
595.221	12456.574
595.349	12583.979
595.477	12492.340
595.605	12504.064
595.733	12503.681
595.862	12753.468
595.990	12679.447
596.118	12623.149
596.246	12781.298
596.374	12693.787
596.502	12684.426
596.630	12707.830
596.758	12677.936
596.887	12645.213
597.015	12741.277
597.143	12721.787
597.271	12783.532
597.399	12726.809
597.527	12725.298
597.655	12765.362
597.783	12724.426
597.912	12697.426
598.040	12733.191
598.168	12763.596
598.296	12714.064
598.424	12694.702
598.552	12734.532
598.680	12672.809
598.808	12829.362
598.937	12664.638
599.065	12643.872
599.193	12724.553
599.321	12801.723
599.449	12694.426
599.577	12644.915
599.705	12717.830
599.833	12619.277
599.962	12686.128
600.090	12753.447
600.218	12756.340
600.346	12770.681
600.474	12690.553
600.602	12727.340
600.730	12778.064
600.858	12827.106
600.987	12995.277
601.115	12852.894
601.243	12895.255
601.371	12941.851
601.499	12922.596
601.627	13004.468
601.755	13043.596
601.883	13093.532
602.012	13104.681
602.140	13095.851
602.268	13247.255
602.396	13231.191
602.524	13309.362
602.652	13216.319
602.780	13321.702
602.908	13376.787
603.037	13404.979
603.165	13389.447
603.293	13470.574
603.421	13461.681
603.549	13558.723
603.677	13652.064
603.805	13622.702
603.933	13662.021
604.062	13787.170
604.190	13774.106
604.318	13762.191
604.446	13779.787
604.574	13843.064
604.702	13889.830
604.830	13972.149
604.958	13957.574
605.087	14043.936
605.215	14047.979
605.343	14052.702
605.471	14029.532
605.599	14112.915
605.727	14117.128
605.855	14186.745
605.983	14184.383
606.112	14191.553
606.240	14215.362
606.368	14213.660
606.496	14370.681
606.624	14214.936
606.752	14281.064
606.880	14397.787
607.008	14425.957
607.137	14393.298
607.265	14217.532
607.393	14297.830
607.521	14376.851
607.649	14288.489
607.777	14260.830
607.905	14284.468
608.033	14248.064
608.162	14310.660
608.290	14316.702
608.418	14213.340
608.546	14263.787
608.674	14283.255
608.802	14217.766
608.930	14224.723
609.058	14231.149
609.187	14350.553
609.315	14319.787
609.443	14298.000
609.571	14333.766
609.699	14304.319
609.827	14274.638
609.955	14288.085
610.083	14255.787
610.212	14248.170
610.340	14241.511
610.468	14273.064
610.596	14276.149
610.724	14313.596
610.852	14293.426
610.980	14293.809
611.108	14354.766
611.237	14196.617
611.365	14306.234
611.493	14250.723
611.621	14316.021
611.749	14321.553
611.877	14350.638
612.005	14305.340
612.133	14404.447
612.262	14440.979
612.390	14405.404
612.518	14453.234
612.646	14497.213
612.774	14462.915
612.902	14439.021
613.030	14594.021
613.158	14686.872
613.287	14603.596
613.415	14573.511
613.543	14542.426
613.671	14536.277
613.799	14636.830
613.927	14545.787
614.055	14539.851
614.183	14736.745
614.312	14598.596
614.440	14778.617
614.568	14654.979
614.696	14720.596
614.824	14880.149
614.952	14764.894
615.080	14765.766
615.208	14855.426
615.337	14888.617
615.465	14954.234
615.593	15070.319
615.721	15166.447
615.849	15225.021
615.977	15262.830
616.105	15307.617
616.233	15167.298
616.362	15221.596
616.490	15212.447
616.618	15246.681
616.746	15360.638
616.874	15416.319
617.002	15313.681
617.130	15285.085
617.258	15499.894
617.387	15395.936
617.515	15373.234
617.643	15377.638
617.771	15458.787
617.899	15406.596
618.027	15431.489
618.155	15508.021
618.283	15410.681
618.412	15408.830
618.540	15518.000
618.668	15433.660
618.796	15442.702
618.924	15562.872
619.052	15453.340
619.180	15433.787
619.308	15474.106
619.437	15456.532
619.565	15436.936
619.693	15395.787
619.821	15398.277
619.949	15418.553
620.077	15488.957
620.205	15500.745
620.333	15461.468
620.462	15452.340
620.590	15518.106
620.718	15427.617
620.846	15468.340
620.974	15504.809
621.102	15406.809
621.230	15434.340
621.358	15531.362
621.487	15383.830
621.615	15354.851
621.743	15423.085
621.871	15412.426
621.999	15453.936
622.127	15364.447
622.255	15354.404
622.383	15292.340
622.512	15272.340
622.640	15479.000
622.768	15245.936
622.896	15313.574
623.024	15235.574
623.152	15358.170
623.280	15356.574
623.408	15190.170
623.537	15286.170
623.665	15193.043
623.793	15242.723
623.921	15195.447
624.049	15113.021
624.177	15114.085
624.305	15163.553
624.433	15231.979
624.562	15255.638
624.690	15179.447
624.818	15213.468
624.946	15327.574
625.074	15196.064
625.202	15115.745
625.330	15136.085
625.458	15175.851
625.587	15116.426
625.715	15174.404
625.843	15234.681
625.971	15193.617
626.099	15154.298
626.227	15132.681
626.355	15066.213
626.483	15250.106
626.612	15121.000
626.740	15147.426
626.868	15222.617
626.996	15125.809
627.124	15151.766
627.252	15108.489
627.380	15164.532
627.508	15205.851
627.637	15130.660
627.765	15184.872
627.893	15265.383
628.021	15243.255
628.149	15432.702
628.277	15596.447
628.405	15492.149
628.533	15311.723
628.662	15337.447
628.790	15304.553
628.918	15317.319
629.046	15274.383
629.174	15431.787
629.302	15679.787
629.430	15476.851
629.558	15348.085
629.687	15384.681
629.815	15344.149
629.943	15396.362
630.071	15439.064
630.199	15523.000
630.327	15480.660
630.455	15458.426
630.583	15560.170
630.712	15533.851
630.840	15509.447
630.968	15592.234
631.096	15486.043
631.224	15520.319
631.352	15533.851
631.480	15519.383
631.608	15553.936
631.737	15675.000
631.865	15699.681
631.993	15521.702
632.121	15652.064
632.249	15651.894
632.377	15566.745
632.505	15564.277
632.633	15391.021
632.762	15488.213
632.890	15580.149
633.018	15379.340
633.146	15534.277
633.274	15414.830
633.402	15383.596
633.530	15355.362
633.658	15507.064
633.787	15267.298
633.915	15343.532
634.043	15281.936
634.171	15280.106
634.299	15276.106
634.427	15308.149
634.555	15253.383
634.683	15146.149
634.812	15165.255
634.940	15101.043
635.068	15056.745
635.196	15080.106
635.324	14967.447
635.452	14995.511
635.580	14952.064
635.708	14934.383
635.837	14878.362
635.965	14823.404
636.093	14805.000
636.221	14752.234
636.349	14863.340
636.477	14731.957
636.605	14850.447
636.733	14587.638
636.862	14600.936
636.990	14593.064
637.118	14530.702
637.246	14550.404
637.374	14417.596
637.502	14470.149
637.630	14420.702
637.758	14402.362
637.887	14361.106
638.015	14340.085
638.143	14348.170
638.271	14256.553
638.399	14245.404
638.527	14242.915
638.655	14202.511
638.783	14315.468
638.912	14208.362
639.040	14231.915
639.168	14177.021
639.296	14077.021
639.424	14206.362
639.552	14075.426
639.680	14241.766
639.808	14073.170
639.937	14056.766
640.065	14009.362
640.193	14090.660
640.321	13999.404
640.449	14059.447
640.577	14105.723
640.705	13963.468
640.833	14056.383
640.962	13956.362
641.090	13981.553
641.218	13922.468
641.346	13959.532
641.474	13932.255
641.602	13927.787
641.730	13926.213
641.858	13966.383
641.987	13933.596
642.115	13899.234
642.243	13994.553
642.371	13914.085
642.499	13897.702
642.627	13969.638
642.755	13970.830
642.883	13954.213
643.012	13960.511
643.140	13862.511
643.268	13866.915
643.396	13881.170
643.524	14004.340
643.652	13898.851
643.780	13835.043
643.908	13889.915
644.037	13888.681
644.165	13807.170
644.293	13823.255
644.421	13834.638
644.549	13881.894
644.677	13737.915
644.805	13808.383
644.933	13671.085
645.062	13700.021
645.190	13674.362
645.318	13797.532
645.446	13641.255
645.574	13690.447
645.702	13608.468
645.830	13813.957
645.958	13582.277
646.087	13762.809
646.215	13508.362
646.343	13674.660
646.471	13540.766
646.599	13597.000
646.727	13481.447
646.855	13446.319
646.983	13429.936
647.112	13397.277
647.240	13523.553
647.368	13334.617
647.496	13340.404
647.624	13243.383
647.752	13219.277
647.880	13216.043
648.008	13228.489
648.137	13117.404
648.265	13117.000
648.393	13142.128
648.521	13101.468
648.649	13077.489
648.777	13024.426
648.905	12931.745
649.033	12948.362
649.162	12828.149
649.290	12923.596
649.418	12847.702
649.546	12833.957
649.674	12806.596
649.802	12721.915
649.930	12824.489
650.058	12654.319
650.187	12643.234
650.315	12583.383
650.443	12650.149
650.571	12580.574
650.699	12568.957
650.827	12447.830
650.955	12498.532
651.083	12456.851
651.212	12463.000
651.340	12442.872
651.468	12386.128
651.596	12312.936
651.724	12271.319
651.852	12259.234
651.980	12215.638
652.108	12285.830
652.237	12177.894
652.365	12245.213
652.493	12120.000
652.621	12088.170
652.749	12124.511
652.877	12060.170
653.005	12066.447
653.133	11994.532
653.262	12019.404
653.390	11950.234
653.518	12067.723
653.646	11932.106
653.774	12037.511
653.902	11867.574
654.030	11797.957
654.158	11801.489
654.287	11760.766
654.415	11743.128
654.543	11770.085
654.671	11699.298
654.799	11655.170
654.927	11610.191
655.055	11615.362
655.183	11619.149
655.312	11562.106
655.440	11577.468
655.568	11509.085
655.696	11524.149
655.824	11575.830
655.952	11421.872
656.080	11378.851
656.208	11488.745
656.337	11324.638
656.465	11341.426
656.593	11274.383
656.721	11168.596
656.849	11219.064
656.977	11131.383
657.105	11129.043
657.233	11050.298
657.362	11047.660
657.490	10985.404
657.618	11011.574
657.746	10971.277
657.874	10903.170
658.002	10884.447
658.130	10849.574
658.258	10774.596
658.387	10850.043
658.515	10751.000
658.643	10731.255
658.771	10735.298
658.899	10766.319
659.027	10669.319
659.155	10671.043
659.283	10808.255
659.412	10571.468
659.540	10650.255
659.668	10496.234
659.796	10509.149
659.924	10498.426
660.052	10459.043
660.180	10394.957
660.308	10407.447
660.437	10376.383
660.565	10349.809
660.693	10327.638
660.821	10272.511
660.949	10233.702
661.077	10235.404
661.205	10230.915
661.333	10173.766
661.462	10282.489
661.590	10169.766
661.718	10319.851
661.846	10138.574
661.974	10242.489
662.102	10050.191
662.230	10089.277
662.358	9951.851
662.487	10014.170
662.615	9953.426
662.743	9985.894
662.871	9943.170
662.999	9911.723
663.127	9923.447
663.255	9976.894
663.383	9972.894
663.512	9869.617
663.640	9905.830
663.768	9832.894
663.896	9872.553
664.024	9910.617
664.152	9850.447
664.280	9839.596
664.408	9843.936
664.537	9814.149
664.665	9812.064
664.793	9688.319
664.921	9710.489
665.049	9708.574
665.177	9705.702
665.305	9697.532
665.433	9687.574
665.562	9613.234
665.690	9674.191
665.818	9770.426
665.946	9610.872
666.074	9591.915
666.202	9556.298
666.330	9581.532
666.458	9572.809
666.587	9490.234
666.715	9504.383
666.843	9528.617
666.971	9449.532
667.099	9494.638
667.227	9439.872
667.355	9452.723
667.483	9458.404
667.612	9424.000
667.740	9417.532
667.868	9441.021
667.996	9419.106
668.124	9351.787
668.252	9348.000
668.380	9285.745
668.508	9339.191
668.637	9296.787
668.765	9254.723
668.893	9294.234
669.021	9222.511
669.149	9261.511
669.277	9318.383
669.405	9186.447
669.533	9199.213
669.662	9411.915
669.790	9180.638
669.918	9234.872
670.046	9149.830
670.174	9170.787
670.302	9135.957
670.430	9120.170
670.558	9096.766
670.687	8962.872
670.815	9127.085
670.943	8943.404
671.071	8954.979
671.199	8975.532
671.327	8893.809
671.455	8881.532
671.583	8802.596
671.712	8968.277
671.840	8827.064
671.968	8700.447
672.096	8740.021
672.224	8701.298
672.352	8831.915
672.480	8694.553
672.608	8599.915
672.737	8532.638
672.865	8679.660
672.993	8508.596
673.121	8435.872
673.249	8418.191
673.377	8414.447
673.505	8350.128
673.633	8344.277
673.762	8297.213
673.890	8264.149
674.018	8494.319
674.146	8233.596
674.274	8211.936
674.402	8368.574
674.530	8190.936
674.658	8138.255
674.787	8066.255
674.915	8036.553
675.043	8137.191
675.171	8043.638
675.299	7972.000
675.427	7990.617
675.555	7918.979
675.683	7932.894
675.812	7873.702
675.940	7891.851
676.068	7828.489
676.196	7780.553
676.324	7772.298
676.452	7748.213
676.580	7676.447
676.708	7697.021
676.837	7708.149
676.965	7625.638
677.093	7558.532
677.221	7514.574
677.349	7548.894
677.477	7573.830
677.605	7461.915
677.733	7526.298
677.862	7396.170
677.990	7353.787
678.118	7346.936
678.246	7336.617
678.374	7379.447
678.502	7250.957
678.630	7249.383
678.758	7214.745
678.887	7189.809
679.015	7214.766
679.143	7158.766
679.271	7154.319
679.399	7170.213
679.527	7128.404
679.655	7068.085
679.783	7126.149
679.912	7165.660
680.040	7046.617
680.168	7059.404
680.296	7044.936
680.424	6982.000
680.552	6995.277
680.680	7049.809
680.808	6902.383
680.937	6902.809
681.065	6874.298
681.193	6902.702
681.321	6877.702
681.449	6848.255
681.577	6900.809
681.705	6863.596
681.833	6804.319
681.962	6789.936
682.090	6939.298
682.218	6743.809
682.346	6751.404
682.474	6756.021
682.602	6714.319
682.730	6748.298
682.858	6698.745
682.987	6755.723
683.115	6673.404
683.243	6602.149
683.371	6601.043
683.499	6655.426
683.627	6675.149
683.755	6657.149
683.883	6716.489
684.012	6573.766
684.140	6549.957
684.268	6517.255
684.396	6538.043
684.524	6544.809
684.652	6573.383
684.780	6497.532
684.908	6532.511
685.037	6448.128
685.165	6421.085
685.293	6410.170
685.421	6515.043
685.549	6392.064
685.677	6353.447
685.805	6509.021
685.933	6379.064
686.062	6303.660
686.190	6246.766
686.318	6335.787
686.446	6295.404
686.574	6261.362
686.702	6358.319
686.830	6216.511
686.958	6167.255
687.087	6237.532
687.215	6236.936
687.343	6144.064
687.471	6150.043
687.599	6124.532
687.727	6306.191
687.855	6140.936
687.983	6163.000
688.112	6150.809
688.240	6070.234
688.368	6042.064
688.496	6045.234
688.624	6088.745
688.752	5975.340
688.880	5990.596
689.008	5958.170
689.137	5962.064
689.265	5884.894
689.393	5884.468
689.521	5883.149
689.649	5888.383
689.777	5865.426
689.905	5783.404
690.033	5819.447
690.162	5794.277
690.290	5755.149
690.418	5743.043
690.546	5835.319
690.674	5794.936
690.802	5687.021
690.930	5719.426
691.058	5690.255
691.187	5653.191
691.315	5608.447
691.443	5695.553
691.571	5621.404
691.699	5581.553
691.827	5653.021
691.955	5538.255
692.083	5537.404
692.212	5672.468
692.340	5513.787
692.468	5520.128
692.596	5506.915
692.724	5590.596
692.852	5411.277
692.980	5512.191
693.108	5427.000
693.237	5368.404
693.365	5362.447
693.493	5315.319
693.621	5318.681
693.749	5264.362
693.877	5269.660
694.005	5327.596
694.133	5278.043
694.262	5263.362
694.390	5176.000
694.518	5195.681
694.646	5178.872
694.774	5159.979
694.902	5295.511
695.030	5188.362
695.158	5115.574
695.287	5112.851
695.415	5099.957
695.543	5087.064
695.671	5176.851
695.799	5070.979
695.927	5057.362
696.055	5016.617
696.183	5045.447
696.312	5014.681
696.440	5149.851
696.568	5038.000
696.696	5029.213
696.824	4947.191
696.952	4935.128
697.080	4953.702
697.208	4898.213
697.337	4945.447
697.465	4880.851
697.593	4817.255
697.721	4820.957
697.849	4848.468
697.977	4836.426
698.105	4817.936
698.233	4772.809
698.362	4776.043
698.490	4745.277
698.618	4759.128
698.746	4834.064
698.874	4759.489
699.002	4946.872
699.130	4715.532
699.258	4722.213
699.387	4660.319
699.515	4672.574
699.643	4641.191
699.771	4700.234
699.899	4650.489
700.027	4624.362
700.155	4570.702
700.283	4578.787
700.412	4625.553
700.540	4566.468
700.668	4569.426
700.796	4528.532
700.924	4508.681
701.052	4499.617
701.180	4586.809
701.308	4504.660
701.437	4385.681
701.565	4376.128
701.693	4358.830
701.821	4394.617
701.949	4360.809
702.077	4390.298
702.205	4279.255
702.333	4324.255
702.462	4295.872
702.590	4285.106
702.718	4220.043
702.846	4226.298
702.974	4189.191
703.102	4210.085
703.230	4267.872
703.358	4180.362
703.487	4129.723
703.615	4310.957
703.743	4108.617
703.871	4093.468
703.999	4112.638
704.127	4184.681
704.255	3997.170
704.383	4147.745
704.512	4014.447
704.640	4001.319
704.768	3911.830
704.896	4018.851
705.024	3918.340
705.152	3984.809
705.280	3856.319
705.408	3843.617
705.537	3873.277
705.665	3783.277
705.793	3789.234
705.921	3774.915
706.049	3766.021
706.177	3736.298
706.305	3743.468
706.433	3832.532
706.562	3741.766
706.690	3670.681
706.818	3647.681
706.946	3852.319
707.074	3657.511
707.202	3616.511
707.330	3685.426
707.458	3619.170
707.587	3558.447
707.715	3568.277
707.843	3591.872
707.971	3622.064
708.099	3606.830
708.227	3505.574
708.355	3495.447
708.483	3488.404
708.612	3464.404
708.740	3488.255
708.868	3539.511
708.996	3465.000
709.124	3479.468
709.252	3423.319
709.380	3370.872
709.508	3428.617
709.637	3367.021
709.765	3354.255
709.893	3379.383
710.021	3358.915
710.149	3322.468
710.277	3356.447
710.405	3289.468
710.533	3294.851
710.662	3272.617
710.790	3263.404
710.918	3285.766
711.046	3257.894
711.174	3218.596
711.302	3269.298
711.430	3290.681
711.558	3163.681
711.687	3187.957
711.815	3209.766
711.943	3164.000
712.071	3184.277
712.199	3204.638
712.327	3183.170
712.455	3088.383
712.583	3140.766
712.712	3133.426
712.840	3111.702
712.968	3104.128
713.096	3128.064
713.224	3056.340
713.352	3090.979
713.480	3042.362
713.608	3058.170
713.737	3084.872
713.865	3052.553
713.993	3104.617
714.121	3026.681
714.249	3054.681
714.377	3114.213
714.505	3020.723
714.633	3179.596
714.762	3027.596
714.890	2949.660
715.018	3011.426
715.146	2995.766
715.274	3024.468
715.402	3154.723
715.530	3059.766
715.658	2913.660
715.787	2887.362
715.915	3124.511
716.043	2914.532
716.171	3006.064
716.299	2991.085
716.427	2910.553
716.555	2882.149
716.683	2874.851
716.812	2870.745
716.940	2895.234
717.068	2801.596
717.196	3030.872
717.324	2946.447
717.452	2831.809
717.580	2780.021
717.708	2813.681
717.837	2889.255
717.965	2733.511
718.093	2791.787
718.221	2716.128
718.349	2775.021
718.477	2765.745
718.605	2814.426
718.733	2710.681
718.862	2741.340
718.990	2715.851
719.118	2722.574
719.246	2652.319
719.374	2762.894
719.502	2699.766
719.630	2852.234
719.758	2640.574
719.887	2647.170
720.015	2843.064
720.143	2617.872
720.271	2642.511
720.399	2643.191
720.527	2677.511
720.655	2695.021
720.783	2693.468
720.912	2612.660
721.040	2582.638
721.168	2598.362
721.296	2656.979
721.424	2580.681
721.552	2512.426
721.680	2539.234
721.808	2590.681
721.937	2584.511
722.065	2618.872
722.193	2595.660
722.321	2539.809
722.449	2515.404
722.577	2507.340
722.705	2531.106
722.833	2535.936
722.962	2530.979
723.090	2485.638
723.218	2478.043
723.346	2481.277
723.474	2477.277
723.602	2556.574
723.730	2537.277
723.858	2540.021
723.987	2518.362
724.115	2457.255
724.243	2470.660
724.371	2472.213
724.499	2490.894
724.627	2445.255
724.755	2429.681
724.883	2441.362
725.012	2432.404
725.140	2406.723
725.268	2400.787
725.396	2391.894
725.524	2384.787
725.652	2385.596
725.780	2362.447
725.908	2365.191
726.037	2374.489
726.165	2344.426
726.293	2307.830
726.421	2303.319
726.549	2320.702
726.677	2308.468
726.805	2295.915
726.933	2287.596
727.062	2246.702
727.190	2300.511
727.318	2277.617
727.446	2272.468
727.574	2245.447
727.702	2281.830
727.830	2218.596
727.958	2269.085
728.087	2254.255
728.215	2241.723
728.343	2198.936
728.471	2223.319
728.599	2205.766
728.727	2211.596
728.855	2206.000
728.983	2186.191
729.112	2167.745
729.240	2178.553
729.368	2159.255
729.496	2175.383
729.624	2147.319
729.752	2155.957
729.880	2154.979
730.008	2135.787
730.137	2126.511
730.265	2160.511
730.393	2140.085
730.521	2115.319
730.649	2109.787
730.777	2134.128
730.905	2083.447
731.033	2095.681
731.162	2160.340
731.290	2198.128
731.418	2124.234
731.546	2182.404
731.674	2053.660
731.802	2083.043
731.930	2051.128
732.058	2042.277
732.187	2076.213
732.315	2010.979
732.443	2042.681
732.571	2040.872
732.699	2026.021
732.827	2048.809
732.955	2000.809
733.083	2000.702
733.212	2015.723
733.340	1997.894
733.468	1996.511
733.596	1979.936
733.724	1962.766
733.852	1991.191
733.980	1970.745
734.108	1984.745
734.237	2018.809
734.365	1986.489
734.493	1982.617
734.621	1933.702
734.749	1976.596
734.877	1954.617
735.005	1948.234
735.133	1948.574
735.262	1950.383
735.390	1912.255
735.518	1928.723
735.646	1917.979
735.774	1929.213
735.902	1931.298
736.030	1887.617
736.158	1946.745
736.287	1902.064
736.415	1936.064
736.543	1886.787
736.671	1854.936
736.799	1879.426
736.927	1954.191
737.055	1879.596
737.183	1858.660
737.312	1863.149
737.440	1895.702
737.568	1906.936
737.696	1864.489
737.824	1886.809
737.952	1840.170
738.080	1816.064
738.208	1887.383
738.337	1824.149
738.465	1912.319
738.593	1803.681
738.721	1787.234
738.849	1820.149
738.977	1839.617
739.105	1811.979
739.233	1810.596
739.362	1803.596
739.490	1761.489
739.618	1774.362
739.746	1781.660
739.874	1779.213
740.002	1757.106
740.130	1747.809
740.258	1754.277
740.387	1740.532
740.515	1751.936
740.643	1720.894
740.771	1777.106
740.899	1719.702
741.027	1725.149
741.155	1753.596
741.283	1693.383
741.412	1703.149
741.540	1710.915
741.668	1669.319
741.796	1686.936
741.924	1756.277
742.052	1680.362
742.180	1680.489
742.308	1676.851
742.437	1679.362
742.565	1702.404
742.693	1686.426
742.821	1637.723
742.949	1707.043
743.077	1651.447
743.205	1661.043
743.333	1651.149
743.462	1667.532
743.590	1662.511
743.718	1614.362
743.846	1647.574
743.974	1638.681
744.102	1631.085
744.230	1634.723
744.358	1613.170
744.487	1594.383
744.615	1620.638
744.743	1608.617
744.871	1592.128
744.999	1640.511
745.127	1554.340
745.255	1571.489
745.383	1586.085
745.512	1577.191
745.640	1561.915
745.768	1583.638
745.896	1570.872
746.024	1556.106
746.152	1532.766
746.280	1548.723
746.408	1542.809
746.537	1536.043
746.665	1534.149
746.793	1552.660
746.921	1512.213
747.049	1553.447
747.177	1548.128
747.305	1559.064
747.433	1574.915
747.562	1510.681
747.690	1492.660
747.818	1517.723
747.946	1506.596
748.074	1605.936
748.202	1533.404
748.330	1494.723
748.458	1495.830
748.587	1466.319
748.715	1456.404
748.843	1485.574
748.971	1472.596
749.099	1463.957
749.227	1487.915
749.355	1453.745
749.483	1462.979
749.612	1455.043
749.740	1449.043
749.868	1443.021
749.996	1444.617
750.124	1434.532
750.252	1445.872
750.380	1454.255
750.508	1404.085
750.637	1405.936
750.765	1430.277
750.893	1420.298
751.021	1444.298
751.149	1424.128
751.277	1438.723
751.405	1459.191
751.533	1480.915
751.662	1401.149
751.790	1423.170
751.918	1399.000
752.046	1406.574
752.174	1380.277
752.302	1447.809
752.430	1388.766
752.558	1379.298
752.687	1364.000
752.815	1371.106
752.943	1347.149
753.071	1345.660
753.199	1355.404
753.327	1398.149
753.455	1367.255
753.583	1328.340
753.712	1339.702
753.840	1319.447
753.968	1332.787
754.096	1343.340
754.224	1313.319
754.352	1306.426
754.480	1324.851
754.608	1305.128
754.737	1329.681
754.865	1355.574
754.993	1308.915
755.121	1303.106
755.249	1367.064
755.377	1301.106
755.505	1300.234
755.633	1312.723
755.762	1280.574
755.890	1357.723
756.018	1332.489
756.146	1265.362
756.274	1274.745
756.402	1275.128
756.530	1263.553
756.658	1296.149
756.787	1268.213
756.915	1225.660
757.043	1268.128
757.171	1251.617
757.299	1242.000
757.427	1244.064
757.555	1237.043
757.683	1288.957
757.812	1220.319
757.940	1224.362
758.068	1208.617
758.196	1197.872
758.324	1201.894
758.452	1299.830
758.580	1201.426
758.708	1214.979
758.837	1199.404
758.965	1289.745
759.093	1182.766
759.221	1173.872
759.349	1188.085
759.477	1142.979
759.605	1179.915
759.733	1167.745
759.862	1171.702
759.990	1159.660
760.118	1154.532
760.246	1131.404
760.374	1166.574
760.502	1151.787
760.630	1149.723
760.758	1136.234
760.887	1120.596
761.015	1130.489
761.143	1107.255
761.271	1122.617
761.399	1095.362
761.527	1098.766
761.655	1107.745
761.783	1099.787
761.912	1089.319
762.040	1072.234
762.168	1113.064
762.296	1086.957
762.424	1080.894
762.552	1056.660
762.680	1142.596
762.808	1054.021
762.937	1071.277
763.065	1119.979
763.193	1100.872
763.321	1065.681
763.449	1030.574
763.577	1043.851
763.705	1028.809
763.833	1108.043
763.962	1021.553
764.090	1019.915
764.218	1048.340
764.346	1032.021
764.474	1005.766
764.602	1014.574
764.730	995.447
764.858	1036.213
764.987	1011.021
765.115	1056.191
765.243	1008.043
765.371	990.319
765.499	978.447
765.627	992.660
765.755	980.894
765.883	992.915
766.012	1000.511
766.140	970.851
766.268	981.936
766.396	960.213
766.524	971.702
766.652	961.170
766.780	958.787
766.908	976.149
767.037	972.936
767.165	980.702
767.293	1032.532
767.421	948.681
767.549	957.085
767.677	964.723
767.805	957.617
767.933	960.660
768.062	972.957
768.190	957.149
768.318	942.255
768.446	961.128
768.574	985.149
768.702	973.149
768.830	948.532
768.958	938.277
769.087	936.255
769.215	935.638
769.343	930.766
769.471	918.170
769.599	979.255
769.727	967.574
769.855	933.745
769.983	925.766
770.112	926.043
770.240	934.809
770.368	935.426
770.496	931.298
770.624	915.766
770.752	941.213
770.880	959.532
771.008	928.723
771.137	937.064
771.265	962.319
771.393	935.979
771.521	936.532
771.649	911.064
771.777	927.234
771.905	932.255
772.033	930.596
772.162	945.894
772.290	910.191
772.418	972.702
772.546	945.957
772.674	920.128
772.802	937.340
772.930	962.745
773.058	919.702
773.187	935.936
773.315	921.745
773.443	921.489
773.571	912.319
773.699	923.915
773.827	909.383
773.955	959.128
774.083	929.830
774.212	923.319
774.340	951.404
774.468	923.915
774.596	919.574
774.724	931.660
774.852	926.298
774.980	922.745
775.108	914.085
775.237	911.468
775.365	923.617
775.493	906.468
775.621	918.319
775.749	917.553
775.877	918.213
776.005	908.191
776.133	935.489
776.262	932.277
776.390	903.362
776.518	962.957
776.646	916.915
776.774	930.213
776.902	914.255
777.030	898.894
777.158	922.745
777.287	936.447
777.415	898.745
777.543	897.426
777.671	903.170
777.799	904.894
777.927	896.851
778.055	923.511
778.183	906.511
778.312	877.532
778.440	899.979
778.568	904.957
778.696	893.660
778.824	912.404
778.952	891.170
779.080	884.404
779.208	912.745
779.337	911.213
779.465	911.191
779.593	898.936
779.721	909.170
779.849	902.000
779.977	890.553
780.105	873.021
780.233	914.851
780.362	909.553
780.490	945.277
780.618	882.298
780.746	888.787
780.874	883.021
781.002	884.298
781.130	875.128
781.258	872.468
781.387	880.574
781.515	907.149
781.643	874.617
781.771	910.809
781.899	883.277
782.027	929.298
782.155	898.681
782.283	894.511
782.412	874.383
782.540	868.553
782.668	908.404
782.796	854.553
782.924	902.277
783.052	860.553
783.180	902.702
783.308	865.106
783.437	869.340
783.565	879.489
783.693	880.043
783.821	876.894
783.949	858.191
784.077	883.766
784.205	863.468
784.333	901.681
784.462	854.468
784.590	861.213
784.718	881.681
784.846	869.787
784.974	880.681
785.102	907.745
785.230	867.170
785.358	906.149
785.487	874.170
785.615	864.468
785.743	846.362
785.871	868.872
785.999	848.085
786.127	836.766
786.255	872.830
786.383	894.894
786.512	878.511
786.640	863.787
786.768	880.064
786.896	850.681
787.024	861.319
787.152	860.809
787.280	860.809
787.408	845.255
787.537	857.702
787.665	848.468
787.793	868.936
787.921	859.787
788.049	851.319
788.177	852.277
788.305	851.553
788.433	864.638
788.562	835.000
788.690	842.362
788.818	843.319
788.946	847.723
789.074	834.915
789.202	862.660
789.330	845.894
789.458	835.787
789.587	902.532
789.715	841.872
789.843	849.532
789.971	829.511
790.099	830.553
790.227	841.617
790.355	835.426
790.483	852.830
790.612	828.213
790.740	832.468
790.868	845.170
790.996	829.617
791.124	826.638
791.252	824.383
791.380	850.383
791.508	832.702
791.637	832.234
791.765	820.915
791.893	818.000
792.021	825.489
792.149	836.255
792.277	832.106
792.405	804.213
792.533	836.000
792.662	795.426
792.790	818.574
792.918	833.617
793.046	811.234
793.174	833.000
793.302	832.362
793.430	818.574
793.558	801.936
793.687	811.426
793.815	800.447
793.943	844.447
794.071	830.851
794.199	805.191
794.327	811.830
794.455	874.149
794.583	887.383
794.712	796.149
794.840	800.511
794.968	798.915
795.096	814.511
795.224	784.489
795.352	791.213
795.480	828.638
795.608	795.383
795.737	801.191
795.865	777.383
795.993	779.149
796.121	771.234
796.249	780.532
796.377	802.128
796.505	777.489
796.633	758.723
796.762	762.553
796.890	789.702
797.018	789.404
797.146	765.064
797.274	762.213
797.402	770.638
797.530	771.574
797.658	759.915
797.787	804.426
797.915	765.766
798.043	774.170
798.171	750.277
798.299	765.064
798.427	751.809
798.555	763.340
798.683	727.957
798.812	751.064
798.940	811.532
799.068	752.553
799.196	788.851
799.324	738.702
799.452	762.851
799.580	727.681
799.708	792.085
799.837	725.851
799.965	729.213
800.093	751.936
800.221	703.723
800.349	726.681
800.477	731.638
800.605	735.702
800.733	737.660
800.862	742.532
800.990	764.426
801.118	713.638
801.246	713.234
801.374	740.128
801.502	712.106
801.630	712.170
801.758	722.383
801.887	732.872
802.015	712.553
802.143	699.149
802.271	730.702
802.399	705.702
802.527	704.213
802.655	732.872
802.783	761.191
802.912	713.702
803.040	697.617
803.168	691.851
803.296	680.468
803.424	709.277
803.552	696.426
803.680	695.489
803.808	695.362
803.937	699.468
804.065	683.064
804.193	690.298
804.321	737.170
804.449	679.787
804.577	682.872
804.705	694.702
804.833	725.745
804.962	669.064
805.090	686.660
805.218	689.000
805.346	696.000
805.474	702.787
805.602	707.660
805.730	680.957
805.858	671.660
805.987	679.979
806.115	682.723
806.243	687.851
806.371	707.404
806.499	771.809
806.627	790.319
806.755	769.574
806.883	694.170
807.012	663.064
807.140	697.638
807.268	683.362
807.396	665.745
807.524	657.234
807.652	664.191
807.780	717.362
807.908	647.660
808.037	707.660
808.165	693.447
808.293	661.489
808.421	707.447
808.549	646.574
808.677	650.532
808.805	694.830
808.933	655.745
809.062	660.170
809.190	701.660
809.318	662.021
809.446	642.872
809.574	706.787
809.702	640.936
809.830	649.936
809.958	656.702
810.087	647.851
810.215	667.681
810.343	656.511
810.471	642.681
810.599	634.638
810.727	644.191
810.855	629.234
810.983	628.340
811.112	637.383
811.240	643.596
811.368	650.191
811.496	680.340
811.624	649.213
811.752	618.745
811.880	637.106
812.008	621.787
812.137	646.447
812.265	614.404
812.393	635.170
812.521	652.915
812.649	629.660
812.777	623.340
812.905	662.511
813.033	615.128
813.162	618.766
813.290	607.745
813.418	635.362
813.546	615.000
813.674	604.255
813.802	624.787
813.930	597.936
814.058	603.489
814.187	612.404
814.315	603.553
814.443	617.340
814.571	625.362
814.699	625.340
814.827	601.787
814.955	605.638
815.083	633.298
815.212	627.809
815.340	638.830
815.468	583.553
815.596	606.043
815.724	623.383
815.852	595.638
815.980	594.191
816.108	594.915
816.237	597.319
816.365	599.255
816.493	608.702
816.621	582.489
816.749	592.021
816.877	607.894
817.005	610.447
817.133	592.574
817.262	578.574
817.390	581.660
817.518	579.340
817.646	594.362
817.774	568.447
817.902	573.277
818.030	568.745
818.158	613.426
818.287	597.298
818.415	568.532
818.543	576.979
818.671	596.574
818.799	571.362
818.927	586.766
819.055	579.745
819.183	551.468
819.312	565.234
819.440	563.468
819.568	547.872
819.696	564.894
819.824	577.787
819.952	553.234
820.080	564.681
820.208	543.319
820.337	557.106
820.465	593.915
820.593	546.085
820.721	558.383
820.849	560.106
820.977	549.915
821.105	561.915
821.233	533.319
821.362	568.426
821.490	537.298
821.618	540.000
821.746	533.745
821.874	545.404
822.002	534.064
822.130	530.000
822.258	519.660
822.387	524.979
822.515	546.021
822.643	543.447
822.771	540.957
822.899	528.745
823.027	565.872
823.155	521.532
823.283	523.128
823.412	534.872
823.540	516.766
823.668	572.128
823.796	520.617
823.924	550.064
824.052	547.660
824.180	530.957
824.308	505.894
824.437	507.191
824.565	510.553
824.693	525.638
824.821	525.128
824.949	519.787
825.077	520.213
825.205	536.872
825.333	524.830
825.462	534.787
825.590	509.681
825.718	536.043
825.846	510.362
825.974	488.553
826.102	494.660
826.230	502.043
826.358	499.723
826.487	492.170
826.615	539.191
826.743	488.128
826.871	517.553
826.999	551.957
827.127	495.915
827.255	509.553
827.383	485.426
827.512	508.638
827.640	480.085
827.768	479.298
827.896	490.511
828.024	487.915
828.152	486.085
828.280	483.064
828.408	480.277
828.537	488.766
828.665	486.234
828.793	490.106
828.921	464.574
829.049	501.532
829.177	469.085
829.305	473.787
829.433	484.894
829.562	496.277
829.690	466.894
829.818	498.213
829.946	478.660
830.074	478.574
830.202	497.340
830.330	490.426
830.458	512.489
830.587	471.617
830.715	473.404
830.843	457.000
830.971	479.085
831.099	488.979
831.227	465.596
831.355	455.660
831.483	476.660
831.612	495.872
831.740	456.128
831.868	464.596
831.996	450.234
832.124	452.532
832.252	436.362
832.380	462.872
832.508	516.660
832.637	458.872
832.765	458.213
832.893	490.660
833.021	449.957
833.149	441.128
833.277	464.404
833.405	444.787
833.533	437.340
833.662	449.660
833.790	439.404
833.918	452.468
834.046	488.574
834.174	455.723
834.302	440.447
834.430	436.000
834.558	444.255
834.687	452.596
834.815	424.234
834.943	448.298
835.071	446.106
835.199	454.596
835.327	455.340
835.455	431.979
835.583	470.766
835.712	421.660
835.840	428.872
835.968	433.957
836.096	487.957
836.224	448.894
836.352	418.702
836.480	443.723
836.608	442.298
836.737	416.277
836.865	426.149
836.993	436.234
837.121	428.298
837.249	418.532
837.377	444.979
837.505	440.383
837.633	422.213
837.762	421.596
837.890	457.426
838.018	454.383
838.146	455.596
838.274	427.979
838.402	436.723
838.530	405.660
838.658	401.213
838.787	420.128
838.915	412.383
839.043	400.745
839.171	430.596
839.299	396.404
839.427	413.000
839.555	406.170
839.683	428.128
839.812	437.936
839.940	402.319
840.068	425.447
840.196	413.872
840.324	410.596
840.452	412.021
840.580	437.660
840.708	409.596
840.837	431.894
840.965	395.234
841.093	403.702
841.221	398.064
841.349	402.319
841.477	408.489
841.605	407.085
841.733	396.468
841.862	394.149
841.990	445.532
842.118	379.319
842.246	390.851
842.374	394.596
842.502	366.128
842.630	401.234
842.758	410.702
842.887	380.340
843.015	389.681
843.143	412.447
843.271	387.830
843.399	420.043
843.527	397.723
843.655	366.702
843.783	389.213
843.912	373.255
844.040	410.723
844.168	370.702
844.296	375.149
844.424	367.894
844.552	391.085
844.680	400.489
844.808	401.617
844.937	382.851
845.065	369.468
845.193	398.426
845.321	383.170
845.449	363.447
845.577	370.872
845.705	376.085
845.833	362.915
845.962	374.681
846.090	359.617
846.218	372.872
846.346	381.319
846.474	378.830
846.602	372.574
846.730	397.362
846.858	380.511
846.987	364.702
847.115	354.106
847.243	381.298
847.371	384.170
847.499	389.596
847.627	355.617
847.755	345.277
847.883	369.128
848.012	369.638
848.140	363.106
848.268	371.787
848.396	349.681
848.524	372.957
848.652	336.000
848.780	356.000
848.908	364.872
849.037	339.723
849.165	364.234
849.293	364.638
849.421	374.234
849.549	353.936
849.677	350.404
849.805	353.213
849.933	352.851
850.062	341.043
850.190	349.106
850.318	355.979
850.446	341.957
850.574	335.064
850.702	344.830
850.830	348.745
850.958	361.064
851.087	329.638
851.215	350.064
851.343	335.851
851.471	337.149
851.599	353.404
851.727	342.426
851.855	388.468
851.983	340.340
852.112	341.000
852.240	337.106
852.368	336.851
852.496	338.511
852.624	331.660
852.752	336.979
852.880	318.043
853.008	338.000
853.137	336.681
853.265	347.319
853.393	331.277
853.521	343.298
853.649	337.894
853.777	326.170
853.905	337.915
854.033	327.489
854.162	386.234
854.290	327.702
854.418	318.894
854.546	325.191
854.674	430.340
854.802	325.766
854.930	314.234
855.058	309.106
855.187	308.936
855.315	344.149
855.443	308.000
855.571	310.745
855.699	311.255
855.827	324.447
855.955	314.702
856.083	319.872
856.212	333.064
856.340	317.064
856.468	364.234
856.596	338.021
856.724	313.787
856.852	324.511
856.980	314.043
857.108	321.489
857.237	301.574
857.365	337.362
857.493	304.553
857.621	298.021
857.749	313.255
857.877	324.894
858.005	321.234
858.133	298.426
858.262	304.617
858.390	305.872
858.518	290.681
858.646	297.149
858.774	303.340
858.902	282.745
859.030	302.851
859.158	309.638
859.287	311.872
859.415	337.766
859.543	293.681
859.671	291.191
859.799	320.340
859.927	308.319
860.055	293.915
860.183	308.787
860.312	303.957
860.440	303.851
860.568	292.723
860.696	285.404
860.824	363.426
860.952	346.809
861.080	300.277
861.208	300.234
861.337	309.362
861.465	323.277
861.593	326.170
861.721	289.043
861.849	294.830
861.977	279.617
862.105	302.489
862.233	324.979
862.362	303.000
862.490	310.213
862.618	280.447
862.746	290.596
862.874	291.681
863.002	284.362
863.130	313.234
863.258	298.723
863.387	302.851
863.515	307.383
863.643	297.936
863.771	356.319
863.899	289.085
864.027	272.426
864.155	281.468
864.283	309.043
864.412	286.957
864.540	283.128
864.668	277.191
864.796	288.404
864.924	287.106
865.052	292.085
865.180	280.234
865.308	263.809
865.437	289.957
865.565	294.447
865.693	310.936
865.821	284.787
865.949	305.894
866.077	283.745
866.205	288.894
866.333	292.170
866.462	272.894
866.590	286.149
866.718	287.936
866.846	276.191
866.974	287.383
867.102	296.723
867.230	308.191
867.358	282.468
867.487	270.191
867.615	303.851
867.743	285.319
867.871	281.043
867.999	287.596
868.127	278.213
868.255	328.255
868.383	327.447
868.512	270.936
868.640	265.340
868.768	267.468
868.896	265.234
869.024	308.596
869.152	280.298
869.280	283.447
869.408	305.830
869.537	267.468
869.665	346.638
869.793	266.872
869.921	302.106
870.049	277.277
870.177	280.213
870.305	311.936
870.433	254.511
870.562	285.702
870.690	258.085
870.818	263.021
870.946	272.170
871.074	308.043
871.202	282.809
871.330	292.383
871.458	253.681
871.587	265.936
871.715	278.426
871.843	260.468
871.971	262.043
872.099	266.298
872.227	258.532
872.355	278.298
872.483	277.957
872.612	279.447
872.740	272.149
872.868	263.617
872.996	263.511
873.124	266.170
873.252	266.128
873.380	262.596
873.508	257.319
873.637	277.511
873.765	254.298
873.893	304.723
874.021	270.085
874.149	256.064
874.277	264.362
874.405	259.234
874.533	258.468
874.662	1155.255
874.790	266.255
874.918	298.574
875.046	287.340
875.174	269.234
875.302	248.872
875.430	289.851
875.558	273.617
875.687	274.596
875.815	260.787
875.943	250.723
876.071	278.574
876.199	283.681
876.327	300.255
876.455	261.532
876.583	276.319
876.712	260.319
876.840	267.255
876.968	301.149
877.096	252.319
877.224	249.298
877.352	303.723
877.480	253.851
877.608	263.426
877.737	268.617
877.865	251.362
877.993	280.638
878.121	240.064
878.249	243.894
878.377	251.340
878.505	255.915
878.633	258.936
878.762	254.809
878.890	250.319
879.018	313.319
879.146	251.936
879.274	240.383
879.402	275.149
879.530	257.617
879.658	239.191
879.787	254.638
879.915	248.809
880.043	283.787
880.171	240.957
880.299	267.362
880.427	259.213
880.555	250.489
880.683	270.723
880.812	245.745
880.940	273.128
881.068	232.553
881.196	245.936
881.324	264.511
881.452	234.021
881.580	273.085
881.708	273.872
881.837	259.915
881.965	262.085
882.093	269.532
882.221	240.149
882.349	278.681
882.477	275.936
882.605	259.702
882.733	243.872
882.862	285.277
882.990	261.277
883.118	243.574
883.246	250.681
883.374	246.149
883.502	242.596
883.630	234.766
883.758	247.787
883.887	260.660
884.015	232.298
884.143	245.809
884.271	258.872
884.399	238.553
884.527	244.170
884.655	228.426
884.783	256.574
884.912	268.277
885.040	239.872
885.168	312.894
885.296	245.851
885.424	258.532
885.552	262.489
885.680	254.021
885.808	237.766
885.937	252.702
886.065	255.681
886.193	240.064
886.321	284.277
886.449	238.043
886.577	286.128
886.705	241.085
886.833	237.638
886.962	236.255
887.090	247.277
887.218	248.638
887.346	260.213
887.474	274.957
887.602	254.936
887.730	249.255
887.858	272.170
887.987	237.638
888.115	274.532
888.243	253.723
888.371	255.638
888.499	239.745
888.627	255.532
888.755	252.681
888.883	235.000
889.012	240.128
889.140	240.979
889.268	264.298
889.396	258.128
889.524	242.511
889.652	240.000
889.780	226.106
889.908	269.426
890.037	236.915
890.165	232.553
890.293	264.064
890.421	294.213
890.549	249.553
890.677	243.809
890.805	236.681
890.933	265.553
891.062	249.872
891.190	235.489
891.318	247.894
891.446	243.979
891.574	230.872
891.702	244.617
891.830	236.340
891.958	272.894
892.087	278.809
892.215	243.596
892.343	249.957
892.471	256.404
892.599	241.043
892.727	260.106
892.855	242.489
892.983	224.766
893.112	243.277
893.240	229.809
893.368	268.894
893.496	236.191
893.624	248.191
893.752	300.340
893.880	279.064
894.008	225.085
894.137	241.574
894.265	245.043
894.393	238.511
894.521	230.404
894.649	262.660
894.777	239.872
894.905	222.660
895.033	276.553
895.162	238.638
895.290	275.553
895.418	254.596
895.546	248.170
895.674	322.021
895.802	236.702
895.930	258.574
896.058	221.000
896.187	234.681
896.315	229.638
896.443	230.936
896.571	234.766
896.699	239.000
896.827	250.404
896.955	243.489
897.083	227.085
897.212	271.128
897.340	231.404
897.468	222.213
897.596	226.021
897.724	271.702
897.852	248.213
897.980	239.894
898.108	234.809
898.237	228.277
898.365	231.191
898.493	244.596
898.621	243.085
898.749	234.660
898.877	246.936
899.005	221.660
899.133	229.489
899.262	250.851
899.390	268.957
899.518	238.383
899.646	233.170
899.774	262.319
899.902	314.702
900.030	254.170
900.158	241.128
900.287	254.532
900.415	220.170
900.543	240.426
900.671	235.319
900.799	261.149
900.927	232.383
901.055	226.277
901.183	234.596
901.312	262.213
901.440	249.021
901.568	249.617
901.696	241.723
901.824	248.234
901.952	248.489
902.080	354.234
902.208	267.128
902.337	236.234
902.465	251.851
902.593	232.936
902.721	241.894
902.849	243.681
902.977	248.681
903.105	233.830
903.233	252.745
903.362	234.553
903.490	248.723
903.618	230.128
903.746	249.234
903.874	226.809
904.002	244.489
904.130	245.447
904.258	256.021
904.387	229.660
904.515	253.745
904.643	213.809
904.771	239.043
904.899	246.979
905.027	266.681
905.155	246.574
905.283	240.723
905.412	269.043
905.540	235.489
905.668	235.383
905.796	229.085
905.924	240.149
906.052	238.213
906.180	261.298
906.308	246.957
906.437	266.234
906.565	241.340
906.693	234.319
906.821	224.298
906.949	241.404
907.077	250.787
907.205	244.340
907.333	242.660
907.462	240.298
907.590	235.340
907.718	260.128
907.846	285.043
907.974	230.000
908.102	237.702
908.230	263.872
908.358	276.511
908.487	250.426
908.615	250.404
908.743	248.362
908.871	299.957
908.999	236.681
909.127	274.362
909.255	224.894
909.383	240.234
909.512	276.043
909.640	249.106
909.768	243.787
909.896	285.532
910.024	267.255
910.152	251.851
910.280	292.298
910.408	246.787
910.537	242.660
910.665	275.298
910.793	246.894
910.921	258.255
911.049	237.106
911.177	232.915
911.305	263.277
911.433	254.489
911.562	240.745
911.690	252.170
911.818	297.745
911.946	243.277
912.074	261.851
912.202	277.043
912.330	245.702
912.458	251.064
912.587	258.745
912.715	272.787
912.843	272.660
912.971	261.213
913.099	278.489
913.227	261.638
913.355	247.255
913.483	272.298
913.612	266.872
913.740	388.851
913.868	271.809
