0pol_70_140_at_750.00nm_cut_at_984.50Y_01.dat
24.04.2023
10:56:13
cut middle at Y: 984.50
top cursor: 1008 down cursor: 961 mean of: 47 lines , 2560 datapoints
wavelength(nm)	intensity[arb. units]
585.996	12035.277
586.124	11714.149
586.252	11581.957
586.380	11685.000
586.508	11687.894
586.637	11763.915
586.765	11833.340
586.893	11823.234
587.021	11880.447
587.149	11953.851
587.277	11895.936
587.405	11994.872
587.533	11902.638
587.662	12081.149
587.790	12056.234
587.918	11936.298
588.046	11994.936
588.174	11928.170
588.302	12026.426
588.430	11992.128
588.558	11984.553
588.687	12051.191
588.815	11991.468
588.943	11951.213
589.071	11934.426
589.199	12033.255
589.327	12007.596
589.455	11912.745
589.583	12118.511
589.712	12039.766
589.840	11986.383
589.968	12004.617
590.096	11984.362
590.224	12015.511
590.352	11990.745
590.480	12076.468
590.608	12024.447
590.737	12116.766
590.865	12095.128
590.993	12057.702
591.121	12044.170
591.249	12121.149
591.377	12068.489
591.505	12071.830
591.633	12190.617
591.762	12133.106
591.890	12290.319
592.018	12102.511
592.146	12153.064
592.274	12119.106
592.402	12137.021
592.530	12144.043
592.658	12407.894
592.787	12236.468
592.915	12438.021
593.043	12227.319
593.171	12273.979
593.299	12329.532
593.427	12348.404
593.555	12391.255
593.683	12408.043
593.812	12427.745
593.940	12498.936
594.068	12497.660
594.196	12578.957
594.324	12610.660
594.452	12598.830
594.580	12565.426
594.708	12662.255
594.837	12597.064
594.965	12705.787
595.093	12751.191
595.221	12732.660
595.349	12857.787
595.477	12827.149
595.605	12822.319
595.733	12844.468
595.862	13039.362
595.990	12892.170
596.118	12903.000
596.246	13036.766
596.374	12949.787
596.502	12985.021
596.630	12940.915
596.758	13011.894
596.887	13011.043
597.015	13013.660
597.143	12984.000
597.271	13018.511
597.399	13026.000
597.527	12973.511
597.655	13022.106
597.783	12926.617
597.912	12936.447
598.040	12984.894
598.168	13062.043
598.296	12978.830
598.424	13048.191
598.552	12947.106
598.680	12958.447
598.808	13131.574
598.937	12979.702
599.065	12980.702
599.193	13032.915
599.321	13023.277
599.449	12937.085
599.577	12962.362
599.705	12980.532
599.833	12897.596
599.962	12988.340
600.090	12993.298
600.218	13064.383
600.346	13097.277
600.474	13020.553
600.602	13006.787
600.730	13094.277
600.858	13122.723
600.987	13265.872
601.115	13090.426
601.243	13218.191
601.371	13156.660
601.499	13278.319
601.627	13357.766
601.755	13317.106
601.883	13359.489
602.012	13426.468
602.140	13329.000
602.268	13515.319
602.396	13490.809
602.524	13592.149
602.652	13498.638
602.780	13604.404
602.908	13630.766
603.037	13637.617
603.165	13636.574
603.293	13761.064
603.421	13713.106
603.549	13809.553
603.677	13917.298
603.805	13842.787
603.933	13930.851
604.062	14020.872
604.190	13980.532
604.318	14085.383
604.446	14053.574
604.574	14062.128
604.702	14108.340
604.830	14152.936
604.958	14171.170
605.087	14260.553
605.215	14229.660
605.343	14330.404
605.471	14333.106
605.599	14406.979
605.727	14291.638
605.855	14411.021
605.983	14381.532
606.112	14389.872
606.240	14413.596
606.368	14394.319
606.496	14621.277
606.624	14458.681
606.752	14580.170
606.880	14638.468
607.008	14689.574
607.137	14624.021
607.265	14448.277
607.393	14504.638
607.521	14692.915
607.649	14525.489
607.777	14499.362
607.905	14571.298
608.033	14577.936
608.162	14521.383
608.290	14524.277
608.418	14497.745
608.546	14522.362
608.674	14510.468
608.802	14475.362
608.930	14497.511
609.058	14512.340
609.187	14546.957
609.315	14535.362
609.443	14484.489
609.571	14535.255
609.699	14462.660
609.827	14499.085
609.955	14443.362
610.083	14465.489
610.212	14430.894
610.340	14428.872
610.468	14490.617
610.596	14502.979
610.724	14533.681
610.852	14412.787
610.980	14466.128
611.108	14533.106
611.237	14409.851
611.365	14429.574
611.493	14406.681
611.621	14505.340
611.749	14484.574
611.877	14496.745
612.005	14527.468
612.133	14570.234
612.262	14528.085
612.390	14548.319
612.518	14626.553
612.646	14700.660
612.774	14595.851
612.902	14617.511
613.030	14715.170
613.158	14801.894
613.287	14763.234
613.415	14755.830
613.543	14661.255
613.671	14637.638
613.799	14760.830
613.927	14706.170
614.055	14667.319
614.183	14858.106
614.312	14728.149
614.440	14892.553
614.568	14794.596
614.696	14860.128
614.824	14987.532
614.952	14875.660
615.080	14871.532
615.208	14960.872
615.337	15016.851
615.465	15061.660
615.593	15196.574
615.721	15276.489
615.849	15351.064
615.977	15352.021
616.105	15331.660
616.233	15222.149
616.362	15372.894
616.490	15256.340
616.618	15366.660
616.746	15421.149
616.874	15436.511
617.002	15424.915
617.130	15432.638
617.258	15607.787
617.387	15502.319
617.515	15434.596
617.643	15452.532
617.771	15496.383
617.899	15448.021
618.027	15454.702
618.155	15537.894
618.283	15493.872
618.412	15448.149
618.540	15531.085
618.668	15468.979
618.796	15506.000
618.924	15632.979
619.052	15508.234
619.180	15512.170
619.308	15552.851
619.437	15519.766
619.565	15488.638
619.693	15448.468
619.821	15411.340
619.949	15456.255
620.077	15542.489
620.205	15542.000
620.333	15484.191
620.462	15458.766
620.590	15480.106
620.718	15403.426
620.846	15507.170
620.974	15455.830
621.102	15412.617
621.230	15324.532
621.358	15534.426
621.487	15341.915
621.615	15370.128
621.743	15406.447
621.871	15390.298
621.999	15407.128
622.127	15349.936
622.255	15350.638
622.383	15316.383
622.512	15250.681
622.640	15415.830
622.768	15221.511
622.896	15286.596
623.024	15243.021
623.152	15341.894
623.280	15298.617
623.408	15175.574
623.537	15173.128
623.665	15130.638
623.793	15170.362
623.921	15155.574
624.049	15126.979
624.177	15133.298
624.305	15162.638
624.433	15164.681
624.562	15146.596
624.690	15145.660
624.818	15140.064
624.946	15267.043
625.074	15151.234
625.202	15125.106
625.330	15097.319
625.458	15168.000
625.587	15091.574
625.715	15145.043
625.843	15182.447
625.971	15142.915
626.099	15116.702
626.227	15052.596
626.355	14994.489
626.483	15131.553
626.612	15019.851
626.740	14995.064
626.868	15106.660
626.996	15012.936
627.124	15016.255
627.252	15023.574
627.380	15057.638
627.508	15082.574
627.637	15077.383
627.765	15062.830
627.893	15089.128
628.021	15140.872
628.149	15315.362
628.277	15417.787
628.405	15392.957
628.533	15114.489
628.662	15132.702
628.790	15157.894
628.918	15109.000
629.046	15167.000
629.174	15250.617
629.302	15486.979
629.430	15310.362
629.558	15244.702
629.687	15206.383
629.815	15226.915
629.943	15233.979
630.071	15262.043
630.199	15293.915
630.327	15209.681
630.455	15253.574
630.583	15412.383
630.712	15306.213
630.840	15330.489
630.968	15383.319
631.096	15337.553
631.224	15260.957
631.352	15310.489
631.480	15330.596
631.608	15361.106
631.737	15411.170
631.865	15441.021
631.993	15343.702
632.121	15413.170
632.249	15381.277
632.377	15354.511
632.505	15358.787
632.633	15178.936
632.762	15279.043
632.890	15343.830
633.018	15122.404
633.146	15305.021
633.274	15171.000
633.402	15129.915
633.530	15098.362
633.658	15278.574
633.787	15056.064
633.915	15108.532
634.043	15020.298
634.171	15055.234
634.299	14953.128
634.427	14996.234
634.555	14931.064
634.683	14857.745
634.812	14877.128
634.940	14827.532
635.068	14800.809
635.196	14762.149
635.324	14715.404
635.452	14771.191
635.580	14692.468
635.708	14613.298
635.837	14658.191
635.965	14557.553
636.093	14494.383
636.221	14439.362
636.349	14511.915
636.477	14466.745
636.605	14514.106
636.733	14316.894
636.862	14314.681
636.990	14283.957
637.118	14273.298
637.246	14314.362
637.374	14159.872
637.502	14172.383
637.630	14086.149
637.758	14109.255
637.887	14024.426
638.015	14021.404
638.143	13969.021
638.271	13932.574
638.399	13919.319
638.527	13935.404
638.655	13859.957
638.783	13978.277
638.912	13881.638
639.040	13846.745
639.168	13828.574
639.296	13803.106
639.424	13899.021
639.552	13685.766
639.680	13921.021
639.808	13735.277
639.937	13673.851
640.065	13708.234
640.193	13759.532
640.321	13621.787
640.449	13716.064
640.577	13742.787
640.705	13577.830
640.833	13738.170
640.962	13581.191
641.090	13560.085
641.218	13517.426
641.346	13591.277
641.474	13615.872
641.602	13565.638
641.730	13558.085
641.858	13547.277
641.987	13569.043
642.115	13491.128
642.243	13563.319
642.371	13539.213
642.499	13509.213
642.627	13502.191
642.755	13615.404
642.883	13590.426
643.012	13546.191
643.140	13508.809
643.268	13451.106
643.396	13440.319
643.524	13573.362
643.652	13496.447
643.780	13410.191
643.908	13475.660
644.037	13523.170
644.165	13414.787
644.293	13366.787
644.421	13377.340
644.549	13433.404
644.677	13354.702
644.805	13356.447
644.933	13270.319
645.062	13305.723
645.190	13309.809
645.318	13348.511
645.446	13261.085
645.574	13231.851
645.702	13200.106
645.830	13383.851
645.958	13125.936
646.087	13353.255
646.215	13085.596
646.343	13267.787
646.471	13123.702
646.599	13121.489
646.727	13004.596
646.855	12983.532
646.983	13031.766
647.112	12893.319
647.240	13075.574
647.368	12894.106
647.496	12942.915
647.624	12804.489
647.752	12760.128
647.880	12821.043
648.008	12722.872
648.137	12721.957
648.265	12676.915
648.393	12588.809
648.521	12614.213
648.649	12548.128
648.777	12552.617
648.905	12453.553
649.033	12457.234
649.162	12424.234
649.290	12393.723
649.418	12368.553
649.546	12403.319
649.674	12325.553
649.802	12204.085
649.930	12312.426
650.058	12184.340
650.187	12126.787
650.315	12065.702
650.443	12150.170
650.571	12107.468
650.699	12030.596
650.827	11986.128
650.955	11970.745
651.083	11967.936
651.212	11977.957
651.340	11959.766
651.468	11891.255
651.596	11813.511
651.724	11840.553
651.852	11802.830
651.980	11755.872
652.108	11763.511
652.237	11692.745
652.365	11749.936
652.493	11634.106
652.621	11629.532
652.749	11674.149
652.877	11573.851
653.005	11500.277
653.133	11497.064
653.262	11447.638
653.390	11466.596
653.518	11519.234
653.646	11448.085
653.774	11540.681
653.902	11356.404
654.030	11348.766
654.158	11260.638
654.287	11257.170
654.415	11263.745
654.543	11238.234
654.671	11188.830
654.799	11161.681
654.927	11147.000
655.055	11071.638
655.183	11096.979
655.312	11068.809
655.440	11051.319
655.568	10996.915
655.696	11025.702
655.824	11090.128
655.952	10941.809
656.080	10861.936
656.208	10977.489
656.337	10855.787
656.465	10819.170
656.593	10797.915
656.721	10736.766
656.849	10776.064
656.977	10716.915
657.105	10630.915
657.233	10545.894
657.362	10506.383
657.490	10497.128
657.618	10489.915
657.746	10432.106
657.874	10402.213
658.002	10418.191
658.130	10329.149
658.258	10276.489
658.387	10295.021
658.515	10216.681
658.643	10201.340
658.771	10196.021
658.899	10213.957
659.027	10121.340
659.155	10126.362
659.283	10259.255
659.412	10064.234
659.540	10128.745
659.668	9998.553
659.796	9988.936
659.924	9996.936
660.052	9952.511
660.180	9955.489
660.308	9831.702
660.437	9807.915
660.565	9763.681
660.693	9744.851
660.821	9719.915
660.949	9715.106
661.077	9709.319
661.205	9694.957
661.333	9658.830
661.462	9701.234
661.590	9640.191
661.718	9762.277
661.846	9618.553
661.974	9690.021
662.102	9502.532
662.230	9525.596
662.358	9493.681
662.487	9481.681
662.615	9417.149
662.743	9380.915
662.871	9457.489
662.999	9394.106
663.127	9382.149
663.255	9483.106
663.383	9473.766
663.512	9308.191
663.640	9385.745
663.768	9337.851
663.896	9357.723
664.024	9373.064
664.152	9290.426
664.280	9342.723
664.408	9264.745
664.537	9319.362
664.665	9266.872
664.793	9174.766
664.921	9164.702
665.049	9215.298
665.177	9193.553
665.305	9152.191
665.433	9162.255
665.562	9067.255
665.690	9102.894
665.818	9238.319
665.946	9126.191
666.074	9056.660
666.202	9069.723
666.330	9059.043
666.458	9044.426
666.587	8989.660
666.715	8995.043
666.843	8979.574
666.971	8945.404
667.099	8934.702
667.227	8910.128
667.355	8915.596
667.483	8872.191
667.612	8873.574
667.740	8877.766
667.868	8945.149
667.996	8869.766
668.124	8758.638
668.252	8759.149
668.380	8761.128
668.508	8761.723
668.637	8710.298
668.765	8697.319
668.893	8699.447
669.021	8616.766
669.149	8664.043
669.277	8675.511
669.405	8597.064
669.533	8599.723
669.662	8832.894
669.790	8579.638
669.918	8606.511
670.046	8521.979
670.174	8579.830
670.302	8529.362
670.430	8487.000
670.558	8508.511
670.687	8396.681
670.815	8579.723
670.943	8373.021
671.071	8354.191
671.199	8352.043
671.327	8306.234
671.455	8319.234
671.583	8277.532
671.712	8417.043
671.840	8301.383
671.968	8167.596
672.096	8177.681
672.224	8141.383
672.352	8306.043
672.480	8141.894
672.608	8069.851
672.737	8020.723
672.865	8136.298
672.993	7973.128
673.121	7921.383
673.249	7863.021
673.377	7857.809
673.505	7848.191
673.633	7833.851
673.762	7749.574
673.890	7737.745
674.018	7972.340
674.146	7713.979
674.274	7653.979
674.402	7815.574
674.530	7660.489
674.658	7580.787
674.787	7555.915
674.915	7495.255
675.043	7581.638
675.171	7498.596
675.299	7470.234
675.427	7463.809
675.555	7350.851
675.683	7354.574
675.812	7341.191
675.940	7325.660
676.068	7268.553
676.196	7233.468
676.324	7227.596
676.452	7199.489
676.580	7114.489
676.708	7164.298
676.837	7130.149
676.965	7097.255
677.093	7032.255
677.221	7008.894
677.349	7016.596
677.477	7019.383
677.605	6957.319
677.733	6996.319
677.862	6857.362
677.990	6866.170
678.118	6845.021
678.246	6838.128
678.374	6816.149
678.502	6749.064
678.630	6738.383
678.758	6686.085
678.887	6701.872
679.015	6676.426
679.143	6644.681
679.271	6627.851
679.399	6639.043
679.527	6631.894
679.655	6504.298
679.783	6572.723
679.912	6584.404
680.040	6558.128
680.168	6538.362
680.296	6499.128
680.424	6424.532
680.552	6514.894
680.680	6533.766
680.808	6414.638
680.937	6438.468
681.065	6373.532
681.193	6384.787
681.321	6389.489
681.449	6381.021
681.577	6368.468
681.705	6372.532
681.833	6296.298
681.962	6241.915
682.090	6443.362
682.218	6255.872
682.346	6242.128
682.474	6241.447
682.602	6189.894
682.730	6233.170
682.858	6169.638
682.987	6198.894
683.115	6172.894
683.243	6141.723
683.371	6117.553
683.499	6108.340
683.627	6156.894
683.755	6146.574
683.883	6254.915
684.012	6059.043
684.140	6030.979
684.268	6001.170
684.396	6012.298
684.524	6026.915
684.652	6042.596
684.780	6018.404
684.908	6027.340
685.037	5922.128
685.165	5907.234
685.293	5876.915
685.421	6000.681
685.549	5879.745
685.677	5855.255
685.805	6010.787
685.933	5900.872
686.062	5789.468
686.190	5807.128
686.318	5858.830
686.446	5753.553
686.574	5734.277
686.702	5848.553
686.830	5736.489
686.958	5672.319
687.087	5710.553
687.215	5710.255
687.343	5655.553
687.471	5642.213
687.599	5611.617
687.727	5763.277
687.855	5626.638
687.983	5665.872
688.112	5692.191
688.240	5537.766
688.368	5530.809
688.496	5530.553
688.624	5595.745
688.752	5424.085
688.880	5482.468
689.008	5461.362
689.137	5465.809
689.265	5403.170
689.393	5385.532
689.521	5352.936
689.649	5343.936
689.777	5371.809
689.905	5302.745
690.033	5298.255
690.162	5280.574
690.290	5255.383
690.418	5245.872
690.546	5360.787
690.674	5311.532
690.802	5196.830
690.930	5218.936
691.058	5206.234
691.187	5169.170
691.315	5142.426
691.443	5176.340
691.571	5095.936
691.699	5109.894
691.827	5135.404
691.955	5056.787
692.083	5075.000
692.212	5176.638
692.340	5035.255
692.468	5000.106
692.596	5002.191
692.724	5122.191
692.852	4959.106
692.980	5006.766
693.108	4931.128
693.237	4905.085
693.365	4887.681
693.493	4846.170
693.621	4849.000
693.749	4832.511
693.877	4798.979
694.005	4883.872
694.133	4805.468
694.262	4811.085
694.390	4738.809
694.518	4731.574
694.646	4738.511
694.774	4725.468
694.902	4799.383
695.030	4764.851
695.158	4625.787
695.287	4632.383
695.415	4640.362
695.543	4615.617
695.671	4722.426
695.799	4643.617
695.927	4580.702
696.055	4586.830
696.183	4558.191
696.312	4520.511
696.440	4669.596
696.568	4583.021
696.696	4540.766
696.824	4462.489
696.952	4481.362
697.080	4490.000
697.208	4417.894
697.337	4444.745
697.465	4422.702
697.593	4367.149
697.721	4378.723
697.849	4407.170
697.977	4372.915
698.105	4390.872
698.233	4280.851
698.362	4298.723
698.490	4309.936
698.618	4290.404
698.746	4402.213
698.874	4294.021
699.002	4442.340
699.130	4282.191
699.258	4276.191
699.387	4193.617
699.515	4205.638
699.643	4173.426
699.771	4241.234
699.899	4165.319
700.027	4184.702
700.155	4127.298
700.283	4101.915
700.412	4140.681
700.540	4099.617
700.668	4107.702
700.796	4027.936
700.924	4044.383
701.052	4013.574
701.180	4135.234
701.308	4050.809
701.437	3946.489
701.565	3942.362
701.693	3913.085
701.821	3940.511
701.949	3937.957
702.077	3922.809
702.205	3861.426
702.333	3876.979
702.462	3852.277
702.590	3839.128
702.718	3820.787
702.846	3789.255
702.974	3766.723
703.102	3793.234
703.230	3869.021
703.358	3797.532
703.487	3692.489
703.615	3868.319
703.743	3720.745
703.871	3667.277
703.999	3717.426
704.127	3759.106
704.255	3579.298
704.383	3733.340
704.512	3605.872
704.640	3607.277
704.768	3534.638
704.896	3599.468
705.024	3495.830
705.152	3610.957
705.280	3474.894
705.408	3442.149
705.537	3464.128
705.665	3414.149
705.793	3416.170
705.921	3362.957
706.049	3401.979
706.177	3323.617
706.305	3349.489
706.433	3420.872
706.562	3326.340
706.690	3274.043
706.818	3269.170
706.946	3494.106
707.074	3264.957
707.202	3226.000
707.330	3284.574
707.458	3213.447
707.587	3151.660
707.715	3166.404
707.843	3193.340
707.971	3187.277
708.099	3214.191
708.227	3135.447
708.355	3102.915
708.483	3093.191
708.612	3065.191
708.740	3068.979
708.868	3146.128
708.996	3072.468
709.124	3092.234
709.252	3039.723
709.380	2993.191
709.508	3032.319
709.637	2983.128
709.765	2955.149
709.893	2978.468
710.021	2978.362
710.149	2927.872
710.277	3007.064
710.405	2893.170
710.533	2923.234
710.662	2901.596
710.790	2873.745
710.918	2909.298
711.046	2898.872
711.174	2848.489
711.302	2866.128
711.430	2956.021
711.558	2795.809
711.687	2803.489
711.815	2819.468
711.943	2784.872
712.071	2800.809
712.199	2860.894
712.327	2811.340
712.455	2737.383
712.583	2779.043
712.712	2748.660
712.840	2732.681
712.968	2709.851
713.096	2761.809
713.224	2678.574
713.352	2733.404
713.480	2680.362
713.608	2688.021
713.737	2674.426
713.865	2688.043
713.993	2740.872
714.121	2636.362
714.249	2678.936
714.377	2734.319
714.505	2648.681
714.633	2795.426
714.762	2671.638
714.890	2597.213
715.018	2651.936
715.146	2640.213
715.274	2681.532
715.402	2802.638
715.530	2664.617
715.658	2559.766
715.787	2556.809
715.915	2756.872
716.043	2562.106
716.171	2629.277
716.299	2639.447
716.427	2578.596
716.555	2609.085
716.683	2553.255
716.812	2561.745
716.940	2548.213
717.068	2515.723
717.196	2637.660
717.324	2602.447
717.452	2540.298
717.580	2544.851
717.708	2553.936
717.837	2569.872
717.965	2521.149
718.093	2541.298
718.221	2506.894
718.349	2512.723
718.477	2496.447
718.605	2516.447
718.733	2499.468
718.862	2493.511
718.990	2491.787
719.118	2501.383
719.246	2487.830
719.374	2500.064
719.502	2509.021
719.630	2539.489
719.758	2444.191
719.887	2437.660
720.015	2464.000
720.143	2415.234
720.271	2424.021
720.399	2450.149
720.527	2398.872
720.655	2402.532
720.783	2384.106
720.912	2351.617
721.040	2395.681
721.168	2353.745
721.296	2358.809
721.424	2328.723
721.552	2340.404
721.680	2303.830
721.808	2332.191
721.937	2313.787
722.065	2294.149
722.193	2247.234
722.321	2291.723
722.449	2287.660
722.577	2276.277
722.705	2273.702
722.833	2250.574
722.962	2268.681
723.090	2217.149
723.218	2196.894
723.346	2231.489
723.474	2207.766
723.602	2250.596
723.730	2202.809
723.858	2206.638
723.987	2202.660
724.115	2148.340
724.243	2163.511
724.371	2164.106
724.499	2172.064
724.627	2137.660
724.755	2134.404
724.883	2145.447
725.012	2111.787
725.140	2099.234
725.268	2070.319
725.396	2080.553
725.524	2053.809
725.652	2078.532
725.780	2063.894
725.908	2042.000
726.037	2049.745
726.165	2035.128
726.293	1993.255
726.421	2017.617
726.549	2007.213
726.677	2001.277
726.805	1982.064
726.933	1993.681
727.062	1964.766
727.190	1976.596
727.318	1956.426
727.446	1982.638
727.574	1951.085
727.702	1957.872
727.830	1926.383
727.958	1975.298
728.087	1935.596
728.215	1944.468
728.343	1925.574
728.471	1916.787
728.599	1892.319
728.727	1911.426
728.855	1872.170
728.983	1880.064
729.112	1880.128
729.240	1872.149
729.368	1872.553
729.496	1845.000
729.624	1860.234
729.752	1851.234
729.880	1851.043
730.008	1858.170
730.137	1859.574
730.265	1842.234
730.393	1841.128
730.521	1831.936
730.649	1802.574
730.777	1849.851
730.905	1765.106
731.033	1781.936
731.162	1846.404
731.290	1895.319
731.418	1846.979
731.546	1869.596
731.674	1735.404
731.802	1768.638
731.930	1753.234
732.058	1739.085
732.187	1757.170
732.315	1705.638
732.443	1735.872
732.571	1748.915
732.699	1724.872
732.827	1744.106
732.955	1705.106
733.083	1700.106
733.212	1703.234
733.340	1687.340
733.468	1699.255
733.596	1683.213
733.724	1657.043
733.852	1680.000
733.980	1680.447
734.108	1691.979
734.237	1718.574
734.365	1678.787
734.493	1702.787
734.621	1634.638
734.749	1680.468
734.877	1651.404
735.005	1657.426
735.133	1634.766
735.262	1662.872
735.390	1630.723
735.518	1629.064
735.646	1608.234
735.774	1621.979
735.902	1635.319
736.030	1622.319
736.158	1664.936
736.287	1586.553
736.415	1623.766
736.543	1567.511
736.671	1552.021
736.799	1562.553
736.927	1650.979
737.055	1586.213
737.183	1562.447
737.312	1560.021
737.440	1598.596
737.568	1606.106
737.696	1558.915
737.824	1606.532
737.952	1533.383
738.080	1506.149
738.208	1565.021
738.337	1527.638
738.465	1616.617
738.593	1521.404
738.721	1500.255
738.849	1517.511
738.977	1502.894
739.105	1512.255
739.233	1502.489
739.362	1490.894
739.490	1457.638
739.618	1455.638
739.746	1485.574
739.874	1498.277
740.002	1463.277
740.130	1445.468
740.258	1455.766
740.387	1438.894
740.515	1435.660
740.643	1409.830
740.771	1476.872
740.899	1434.511
741.027	1427.340
741.155	1464.660
741.283	1409.362
741.412	1413.170
741.540	1417.766
741.668	1378.404
741.796	1372.064
741.924	1448.447
742.052	1374.681
742.180	1389.191
742.308	1379.085
742.437	1383.234
742.565	1420.511
742.693	1394.702
742.821	1351.383
742.949	1436.574
743.077	1386.915
743.205	1363.085
743.333	1371.489
743.462	1357.213
743.590	1369.489
743.718	1333.277
743.846	1349.660
743.974	1346.064
744.102	1330.362
744.230	1360.660
744.358	1307.213
744.487	1310.064
744.615	1330.383
744.743	1323.681
744.871	1293.745
744.999	1342.362
745.127	1289.426
745.255	1282.383
745.383	1310.745
745.512	1273.596
745.640	1266.000
745.768	1297.170
745.896	1288.064
746.024	1292.872
746.152	1251.766
746.280	1254.681
746.408	1258.574
746.537	1245.915
746.665	1265.128
746.793	1258.681
746.921	1229.000
747.049	1242.106
747.177	1263.766
747.305	1267.170
747.433	1300.426
747.562	1228.702
747.690	1220.191
747.818	1231.596
747.946	1219.660
748.074	1323.830
748.202	1242.170
748.330	1207.106
748.458	1239.574
748.587	1202.106
748.715	1185.830
748.843	1216.064
748.971	1187.915
749.099	1187.894
749.227	1219.745
749.355	1164.128
749.483	1179.149
749.612	1182.936
749.740	1162.213
749.868	1144.596
749.996	1164.702
750.124	1152.532
750.252	1160.489
750.380	1155.553
750.508	1147.000
750.637	1129.894
750.765	1163.191
750.893	1145.957
751.021	1171.277
751.149	1146.638
751.277	1148.745
751.405	1169.213
751.533	1192.149
751.662	1111.532
751.790	1142.383
751.918	1114.660
752.046	1121.043
752.174	1112.574
752.302	1161.532
752.430	1108.957
752.558	1093.149
752.687	1098.340
752.815	1091.021
752.943	1084.340
753.071	1064.511
753.199	1064.234
753.327	1123.894
753.455	1074.383
753.583	1061.702
753.712	1068.383
753.840	1061.660
753.968	1038.191
754.096	1049.851
754.224	1037.915
754.352	1040.170
754.480	1035.894
754.608	1040.872
754.737	1037.681
754.865	1074.298
754.993	1042.511
755.121	1024.617
755.249	1091.043
755.377	1040.426
755.505	1030.234
755.633	1052.213
755.762	1017.936
755.890	1092.000
756.018	1072.894
756.146	1000.468
756.274	999.064
756.402	1005.468
756.530	1008.660
756.658	1007.787
756.787	1030.915
756.915	960.362
757.043	1016.128
757.171	1000.553
757.299	985.766
757.427	958.064
757.555	975.766
757.683	1014.128
757.812	949.043
757.940	964.936
758.068	947.723
758.196	936.787
758.324	932.447
758.452	1041.574
758.580	941.511
758.708	948.702
758.837	935.617
758.965	1019.936
759.093	924.894
759.221	910.000
759.349	925.319
759.477	907.468
759.605	912.085
759.733	897.787
759.862	899.809
759.990	891.745
760.118	902.702
760.246	890.128
760.374	900.553
760.502	906.447
760.630	893.489
760.758	885.574
760.887	858.149
761.015	872.787
761.143	857.170
761.271	870.362
761.399	856.894
761.527	870.340
761.655	866.851
761.783	852.702
761.912	838.383
762.040	837.255
762.168	885.213
762.296	838.979
762.424	821.298
762.552	839.617
762.680	905.553
762.808	812.085
762.937	836.894
763.065	872.872
763.193	865.553
763.321	827.936
763.449	797.128
763.577	814.596
763.705	802.277
763.833	883.830
763.962	804.617
764.090	801.660
764.218	810.617
764.346	801.106
764.474	776.681
764.602	797.234
764.730	774.702
764.858	817.532
764.987	790.170
765.115	833.638
765.243	783.660
765.371	763.872
765.499	747.085
765.627	756.745
765.755	751.553
765.883	779.787
766.012	763.170
766.140	744.170
766.268	749.957
766.396	737.191
766.524	746.213
766.652	736.234
766.780	738.383
766.908	753.277
767.037	749.340
767.165	751.340
767.293	797.340
767.421	733.723
767.549	736.426
767.677	734.021
767.805	723.277
767.933	733.170
768.062	723.745
768.190	726.638
768.318	710.660
768.446	736.723
768.574	752.021
768.702	755.021
768.830	724.553
768.958	727.830
769.087	709.362
769.215	716.894
769.343	715.128
769.471	682.596
769.599	751.894
769.727	724.660
769.855	711.553
769.983	712.404
770.112	696.787
770.240	690.043
770.368	700.872
770.496	680.979
770.624	695.404
770.752	709.681
770.880	734.043
771.008	695.298
771.137	690.234
771.265	736.936
771.393	702.681
771.521	697.511
771.649	691.511
771.777	684.362
771.905	686.191
772.033	704.957
772.162	703.766
772.290	686.383
772.418	734.872
772.546	698.191
772.674	673.000
772.802	699.723
772.930	732.745
773.058	684.681
773.187	703.532
773.315	689.489
773.443	688.426
773.571	684.957
773.699	676.255
773.827	668.532
773.955	715.319
774.083	694.723
774.212	683.894
774.340	710.319
774.468	687.957
774.596	678.489
774.724	683.319
774.852	689.957
774.980	674.979
775.108	680.809
775.237	670.660
775.365	678.128
775.493	666.489
775.621	664.426
775.749	692.170
775.877	674.532
776.005	678.319
776.133	695.298
776.262	687.936
776.390	659.043
776.518	707.681
776.646	675.277
776.774	675.213
776.902	667.468
777.030	665.660
777.158	685.511
777.287	694.149
777.415	656.638
777.543	662.766
777.671	652.830
777.799	649.532
777.927	660.340
778.055	656.043
778.183	670.745
778.312	635.149
778.440	651.809
778.568	670.830
778.696	655.596
778.824	668.936
778.952	656.809
779.080	639.021
779.208	668.234
779.337	670.553
779.465	654.340
779.593	648.617
779.721	671.000
779.849	648.681
779.977	638.936
780.105	636.043
780.233	656.809
780.362	672.660
780.490	680.362
780.618	646.915
780.746	648.191
780.874	635.191
781.002	633.681
781.130	634.936
781.258	626.936
781.387	644.851
781.515	655.915
781.643	628.787
781.771	683.234
781.899	632.255
782.027	674.404
782.155	646.362
782.283	633.830
782.412	607.915
782.540	638.681
782.668	653.383
782.796	610.319
782.924	658.447
783.052	630.362
783.180	661.340
783.308	621.766
783.437	622.766
783.565	634.766
783.693	630.213
783.821	630.298
783.949	606.426
784.077	640.468
784.205	622.383
784.333	661.660
784.462	599.596
784.590	627.383
784.718	632.553
784.846	610.128
784.974	645.170
785.102	665.043
785.230	613.851
785.358	647.553
785.487	626.170
785.615	629.128
785.743	608.340
785.871	625.511
785.999	611.191
786.127	589.489
786.255	622.979
786.383	637.447
786.512	632.426
786.640	622.723
786.768	629.170
786.896	602.745
787.024	607.213
787.152	603.213
787.280	614.894
787.408	599.191
787.537	621.511
787.665	609.532
787.793	631.000
787.921	618.191
788.049	622.021
788.177	589.234
788.305	600.979
788.433	627.915
788.562	594.468
788.690	593.617
788.818	597.787
788.946	606.872
789.074	584.617
789.202	612.617
789.330	616.234
789.458	598.404
789.587	659.383
789.715	594.128
789.843	604.383
789.971	601.596
790.099	599.426
790.227	606.021
790.355	585.766
790.483	625.809
790.612	600.532
790.740	591.234
790.868	619.681
790.996	601.723
791.124	597.489
791.252	587.723
791.380	608.043
791.508	597.532
791.637	589.468
791.765	574.596
791.893	580.277
792.021	582.894
792.149	590.064
792.277	582.681
792.405	571.255
792.533	603.723
792.662	570.447
792.790	578.638
792.918	602.191
793.046	577.851
793.174	608.574
793.302	579.660
793.430	577.894
793.558	575.000
793.687	576.085
793.815	581.149
793.943	592.447
794.071	593.596
794.199	577.170
794.327	578.723
794.455	644.277
794.583	668.638
794.712	556.723
794.840	575.766
794.968	579.766
795.096	589.957
795.224	559.319
795.352	564.723
795.480	597.064
795.608	579.234
795.737	582.766
795.865	566.489
795.993	548.660
796.121	547.872
796.249	554.553
796.377	579.319
796.505	559.936
796.633	555.085
796.762	549.681
796.890	574.638
797.018	570.128
797.146	545.255
797.274	538.404
797.402	549.936
797.530	566.787
797.658	540.787
797.787	589.723
797.915	548.213
798.043	570.234
798.171	544.915
798.299	550.915
798.427	531.149
798.555	550.660
798.683	527.170
798.812	534.532
798.940	602.043
799.068	540.170
799.196	569.191
799.324	535.681
799.452	539.234
799.580	517.362
799.708	579.191
799.837	513.362
799.965	533.766
800.093	547.660
800.221	509.851
800.349	539.404
800.477	519.298
800.605	542.553
800.733	541.979
800.862	540.766
800.990	559.106
801.118	505.787
801.246	516.745
801.374	530.021
801.502	521.362
801.630	506.638
801.758	524.511
801.887	539.638
802.015	512.787
802.143	499.340
802.271	542.936
802.399	516.191
802.527	511.404
802.655	553.596
802.783	555.234
802.912	520.702
803.040	513.000
803.168	496.191
803.296	493.851
803.424	517.021
803.552	505.277
803.680	500.191
803.808	521.404
803.937	509.170
804.065	496.957
804.193	500.319
804.321	562.681
804.449	498.319
804.577	506.319
804.705	500.234
804.833	534.957
804.962	496.723
805.090	497.617
805.218	498.809
805.346	512.936
805.474	507.766
805.602	525.766
805.730	513.043
805.858	487.106
805.987	499.957
806.115	498.340
806.243	504.447
806.371	531.766
806.499	602.128
806.627	623.532
806.755	599.723
806.883	508.064
807.012	497.043
807.140	515.979
807.268	507.021
807.396	502.383
807.524	476.979
807.652	486.532
807.780	542.574
807.908	490.128
808.037	530.064
808.165	514.809
808.293	489.298
808.421	529.021
808.549	476.681
808.677	493.319
808.805	524.362
808.933	487.723
809.062	512.851
809.190	540.511
809.318	490.064
809.446	492.064
809.574	548.021
809.702	476.553
809.830	488.702
809.958	487.404
810.087	489.872
810.215	506.085
810.343	491.021
810.471	489.681
810.599	484.511
810.727	486.766
810.855	460.000
810.983	476.404
811.112	494.447
811.240	479.660
811.368	490.128
811.496	520.021
811.624	491.574
811.752	477.638
811.880	494.596
812.008	465.979
812.137	495.851
812.265	463.000
812.393	490.106
812.521	500.362
812.649	480.915
812.777	476.149
812.905	498.234
813.033	460.319
813.162	472.809
813.290	464.191
813.418	485.213
813.546	469.553
813.674	466.404
813.802	471.234
813.930	457.149
814.058	467.277
814.187	473.830
814.315	450.362
814.443	474.064
814.571	484.404
814.699	487.723
814.827	475.468
814.955	453.915
815.083	493.340
815.212	485.468
815.340	498.362
815.468	453.191
815.596	457.021
815.724	473.596
815.852	455.064
815.980	465.000
816.108	465.170
816.237	446.596
816.365	461.809
816.493	476.851
816.621	446.043
816.749	463.723
816.877	468.085
817.005	483.000
817.133	464.021
817.262	441.340
817.390	452.468
817.518	455.766
817.646	464.723
817.774	456.574
817.902	449.745
818.030	437.170
818.158	488.723
818.287	476.234
818.415	435.936
818.543	451.298
818.671	467.362
818.799	447.511
818.927	468.702
819.055	455.681
819.183	445.489
819.312	450.681
819.440	434.511
819.568	441.745
819.696	451.872
819.824	462.553
819.952	444.043
820.080	450.851
820.208	434.979
820.337	435.723
820.465	469.851
820.593	445.255
820.721	449.085
820.849	445.000
820.977	435.021
821.105	449.723
821.233	422.340
821.362	460.830
821.490	423.894
821.618	431.915
821.746	435.404
821.874	442.766
822.002	439.191
822.130	440.702
822.258	419.979
822.387	413.340
822.515	447.340
822.643	447.872
822.771	435.340
822.899	437.511
823.027	475.638
823.155	417.064
823.283	413.000
823.412	426.447
823.540	426.638
823.668	474.894
823.796	418.617
823.924	455.617
824.052	455.596
824.180	437.936
824.308	421.596
824.437	414.489
824.565	421.787
824.693	437.404
824.821	434.915
824.949	433.085
825.077	431.298
825.205	459.064
825.333	445.745
825.462	442.553
825.590	418.660
825.718	450.106
825.846	423.915
825.974	415.745
826.102	415.319
826.230	405.319
826.358	421.404
826.487	415.830
826.615	459.489
826.743	405.468
826.871	449.106
826.999	461.787
827.127	422.234
827.255	427.340
827.383	407.681
827.512	441.936
827.640	408.489
827.768	404.000
827.896	414.085
828.024	412.000
828.152	415.830
828.280	407.447
828.408	407.426
828.537	413.170
828.665	416.574
828.793	419.787
828.921	401.596
829.049	431.064
829.177	405.213
829.305	405.894
829.433	417.298
829.562	424.213
829.690	400.021
829.818	424.085
829.946	405.340
830.074	414.830
830.202	423.766
830.330	431.021
830.458	446.553
830.587	410.915
830.715	408.617
830.843	400.574
830.971	408.617
831.099	428.851
831.227	399.979
831.355	401.745
831.483	410.191
831.612	432.021
831.740	405.319
831.868	403.553
831.996	405.064
832.124	399.574
832.252	386.617
832.380	411.255
832.508	447.596
832.637	398.255
832.765	402.638
832.893	431.532
833.021	391.702
833.149	383.383
833.277	395.574
833.405	385.894
833.533	388.830
833.662	395.213
833.790	383.447
833.918	406.851
834.046	433.085
834.174	403.617
834.302	390.787
834.430	385.681
834.558	394.745
834.687	403.468
834.815	377.511
834.943	396.277
835.071	400.106
835.199	403.723
835.327	410.915
835.455	385.064
835.583	426.383
835.712	382.085
835.840	387.447
835.968	385.426
836.096	442.447
836.224	397.106
836.352	378.809
836.480	398.851
836.608	389.979
836.737	380.532
836.865	383.766
836.993	389.426
837.121	398.489
837.249	384.340
837.377	407.043
837.505	394.085
837.633	383.957
837.762	383.553
837.890	421.787
838.018	415.000
838.146	415.447
838.274	402.532
838.402	406.085
838.530	373.489
838.658	365.936
838.787	388.638
838.915	383.766
839.043	373.064
839.171	407.872
839.299	361.426
839.427	379.574
839.555	385.043
839.683	406.234
839.812	410.085
839.940	371.447
840.068	399.915
840.196	390.532
840.324	379.170
840.452	374.532
840.580	412.064
840.708	385.957
840.837	406.362
840.965	367.426
841.093	377.255
841.221	370.426
841.349	381.787
841.477	385.170
841.605	388.702
841.733	373.915
841.862	375.383
841.990	425.298
842.118	360.213
842.246	379.362
842.374	374.085
842.502	351.745
842.630	385.957
842.758	404.489
842.887	362.617
843.015	375.872
843.143	390.085
843.271	374.574
843.399	401.170
843.527	384.830
843.655	365.660
843.783	369.851
843.912	363.277
844.040	389.511
844.168	361.596
844.296	359.255
844.424	352.936
844.552	377.596
844.680	385.298
844.808	385.532
844.937	358.979
845.065	363.277
845.193	383.085
845.321	369.532
845.449	364.638
845.577	363.766
845.705	359.511
845.833	347.362
845.962	378.681
846.090	356.830
846.218	364.809
846.346	366.255
846.474	380.851
846.602	362.851
846.730	394.702
846.858	377.383
846.987	362.809
847.115	345.447
847.243	376.681
847.371	382.723
847.499	365.915
847.627	352.426
847.755	354.617
847.883	355.277
848.012	370.723
848.140	357.191
848.268	363.638
848.396	342.426
848.524	371.234
848.652	334.702
848.780	352.766
848.908	354.000
849.037	359.255
849.165	361.809
849.293	366.830
849.421	369.511
849.549	349.638
849.677	355.085
849.805	364.277
849.933	353.851
850.062	348.106
850.190	358.702
850.318	359.170
850.446	339.851
850.574	339.277
850.702	349.064
850.830	353.000
850.958	356.085
851.087	338.957
851.215	354.149
851.343	339.128
851.471	346.213
851.599	356.234
851.727	340.043
851.855	398.021
851.983	355.426
852.112	350.787
852.240	346.979
852.368	350.574
852.496	343.064
852.624	341.043
852.752	343.000
852.880	329.766
853.008	344.170
853.137	351.489
853.265	357.340
853.393	337.809
853.521	356.277
853.649	351.766
853.777	334.340
853.905	354.681
854.033	337.596
854.162	393.213
854.290	339.596
854.418	327.979
854.546	331.532
854.674	445.319
854.802	344.468
854.930	325.234
855.058	318.319
855.187	323.255
855.315	350.851
855.443	318.234
855.571	322.383
855.699	325.191
855.827	331.936
855.955	330.702
856.083	335.298
856.212	340.702
856.340	320.170
856.468	378.936
856.596	345.447
856.724	332.681
856.852	336.106
856.980	329.851
857.108	344.362
857.237	318.830
857.365	356.638
857.493	318.872
857.621	318.106
857.749	333.511
857.877	333.766
858.005	343.404
858.133	323.809
858.262	321.830
858.390	313.766
858.518	310.106
858.646	312.851
858.774	323.128
858.902	302.106
859.030	320.532
859.158	330.957
859.287	327.574
859.415	342.957
859.543	307.766
859.671	308.277
859.799	332.383
859.927	317.894
860.055	318.277
860.183	323.383
860.312	317.915
860.440	321.489
860.568	316.234
860.696	307.021
860.824	389.149
860.952	365.745
861.080	317.809
861.208	324.319
861.337	322.979
861.465	343.149
861.593	352.213
861.721	314.681
861.849	318.170
861.977	301.638
862.105	331.149
862.233	346.426
862.362	322.851
862.490	332.149
862.618	298.447
862.746	315.362
862.874	312.255
863.002	305.064
863.130	337.447
863.258	311.851
863.387	322.170
863.515	325.043
863.643	321.617
863.771	384.255
863.899	317.340
864.027	299.085
864.155	301.723
864.283	333.213
864.412	310.660
864.540	297.298
864.668	303.383
864.796	307.234
864.924	311.404
865.052	311.681
865.180	300.085
865.308	281.596
865.437	310.447
865.565	313.660
865.693	339.511
865.821	305.936
865.949	327.936
866.077	307.723
866.205	313.234
866.333	311.532
866.462	298.532
866.590	308.702
866.718	317.468
866.846	302.234
866.974	313.745
867.102	318.681
867.230	324.851
867.358	308.170
867.487	294.574
867.615	312.702
867.743	306.681
867.871	313.234
867.999	307.000
868.127	291.128
868.255	351.234
868.383	344.723
868.512	292.447
868.640	296.681
868.768	285.596
868.896	283.766
869.024	327.532
869.152	296.553
869.280	308.170
869.408	326.936
869.537	291.468
869.665	362.021
869.793	286.872
869.921	326.660
870.049	298.447
870.177	296.532
870.305	334.979
870.433	282.553
870.562	311.319
870.690	285.021
870.818	290.426
870.946	303.553
871.074	315.830
871.202	301.319
871.330	312.894
871.458	277.574
871.587	295.128
871.715	304.553
871.843	289.809
871.971	281.851
872.099	295.043
872.227	282.447
872.355	297.362
872.483	295.574
872.612	298.064
872.740	298.915
872.868	282.191
872.996	289.106
873.124	284.000
873.252	285.702
873.380	286.277
873.508	277.894
873.637	302.128
873.765	276.660
873.893	333.404
874.021	291.383
874.149	282.213
874.277	288.426
874.405	277.766
874.533	282.064
874.662	1177.170
874.790	286.894
874.918	328.426
875.046	302.468
875.174	295.596
875.302	270.638
875.430	318.170
875.558	287.745
875.687	300.915
875.815	274.957
875.943	278.404
876.071	295.957
876.199	307.851
876.327	317.617
876.455	285.234
876.583	297.426
876.712	270.298
876.840	299.064
876.968	318.745
877.096	277.277
877.224	269.447
877.352	329.277
877.480	269.170
877.608	283.128
877.737	287.170
877.865	277.468
877.993	294.106
878.121	256.936
878.249	272.298
878.377	272.830
878.505	281.745
878.633	278.723
878.762	268.319
878.890	257.298
879.018	339.511
879.146	277.468
879.274	257.468
879.402	288.213
879.530	277.319
879.658	259.149
879.787	265.596
879.915	262.340
880.043	302.426
880.171	258.362
880.299	284.489
880.427	280.128
880.555	274.277
880.683	292.596
880.812	251.830
880.940	300.809
881.068	258.787
881.196	267.277
881.324	275.872
881.452	259.021
881.580	289.298
881.708	286.362
881.837	281.383
881.965	271.979
882.093	278.574
882.221	253.894
882.349	298.149
882.477	289.745
882.605	275.021
882.733	257.511
882.862	304.447
882.990	280.021
883.118	266.383
883.246	267.255
883.374	268.021
883.502	262.340
883.630	249.149
883.758	260.021
883.887	276.106
884.015	258.660
884.143	253.553
884.271	277.085
884.399	252.447
884.527	263.383
884.655	241.362
884.783	275.085
884.912	278.638
885.040	253.404
885.168	330.553
885.296	254.043
885.424	275.489
885.552	276.234
885.680	258.702
885.808	251.936
885.937	273.426
886.065	276.277
886.193	253.638
886.321	297.298
886.449	255.319
886.577	301.021
886.705	246.574
886.833	249.596
886.962	252.851
887.090	253.809
887.218	256.149
887.346	273.149
887.474	287.830
887.602	271.362
887.730	268.872
887.858	283.319
887.987	255.532
888.115	296.255
888.243	263.447
888.371	261.979
888.499	250.064
888.627	271.447
888.755	269.021
888.883	256.936
889.012	252.234
889.140	258.319
889.268	271.830
889.396	266.340
889.524	250.809
889.652	248.234
889.780	242.383
889.908	281.277
890.037	250.723
890.165	251.617
890.293	278.404
890.421	309.319
890.549	263.064
890.677	259.660
890.805	248.745
890.933	282.149
891.062	259.043
891.190	251.298
891.318	261.787
891.446	253.468
891.574	245.574
891.702	244.149
891.830	243.298
891.958	284.213
892.087	285.745
892.215	256.660
892.343	258.426
892.471	266.681
892.599	248.702
892.727	273.085
892.855	243.298
892.983	235.277
893.112	248.319
893.240	243.447
893.368	276.957
893.496	249.021
893.624	257.383
893.752	312.426
893.880	286.404
894.008	237.957
894.137	255.404
894.265	253.000
894.393	254.277
894.521	250.404
894.649	273.362
894.777	251.000
894.905	235.766
895.033	280.915
895.162	239.511
895.290	276.404
895.418	268.170
895.546	262.085
895.674	332.404
895.802	242.340
895.930	267.511
896.058	230.617
896.187	240.447
896.315	241.447
896.443	240.000
896.571	253.809
896.699	242.489
896.827	254.043
896.955	250.617
897.083	235.553
897.212	274.723
897.340	243.851
897.468	227.511
897.596	237.489
897.724	286.511
897.852	253.213
897.980	245.872
898.108	247.766
898.237	237.894
898.365	228.404
898.493	249.426
898.621	245.404
898.749	245.468
898.877	254.404
899.005	224.830
899.133	234.468
899.262	256.489
899.390	279.255
899.518	241.340
899.646	242.830
899.774	266.574
899.902	324.021
900.030	255.149
900.158	243.851
900.287	256.617
900.415	225.234
900.543	248.936
900.671	243.170
900.799	271.489
900.927	233.894
901.055	235.191
901.183	252.064
901.312	266.000
901.440	255.872
901.568	256.106
901.696	243.426
901.824	249.149
901.952	246.596
902.080	363.489
902.208	270.404
902.337	233.426
902.465	247.809
902.593	242.723
902.721	245.234
902.849	253.170
902.977	251.362
903.105	238.234
903.233	255.213
903.362	239.702
903.490	251.553
903.618	235.298
903.746	261.915
903.874	227.319
904.002	253.957
904.130	252.149
904.258	262.447
904.387	241.277
904.515	258.851
904.643	222.532
904.771	233.426
904.899	248.681
905.027	264.404
905.155	250.021
905.283	244.383
905.412	268.021
905.540	237.511
905.668	237.681
905.796	237.638
905.924	246.043
906.052	238.574
906.180	259.766
906.308	251.362
906.437	270.021
906.565	244.362
906.693	246.574
906.821	228.745
906.949	243.957
907.077	266.021
907.205	243.213
907.333	245.149
907.462	237.574
907.590	234.745
907.718	266.362
907.846	286.681
907.974	232.191
908.102	250.617
908.230	261.596
908.358	285.532
908.487	244.085
908.615	248.000
908.743	253.383
908.871	296.957
908.999	243.468
909.127	275.000
909.255	227.043
909.383	243.362
909.512	276.936
909.640	248.106
909.768	243.511
909.896	295.149
910.024	266.000
910.152	253.277
910.280	286.404
910.408	244.468
910.537	248.383
910.665	276.404
910.793	251.872
910.921	264.596
911.049	242.660
911.177	230.106
911.305	257.298
911.433	249.851
911.562	246.596
911.690	251.149
911.818	307.064
911.946	244.553
912.074	259.255
912.202	292.043
912.330	249.255
912.458	251.021
912.587	260.298
912.715	276.064
912.843	278.957
912.971	269.362
913.099	285.447
913.227	269.489
913.355	249.511
913.483	265.894
913.612	266.681
913.740	391.872
913.868	262.872
