0pol_90_120_at_750.00nm_cut_at_984.50Y_01.dat
24.04.2023
10:43:35
cut middle at Y: 984.50
top cursor: 1008 down cursor: 961 mean of: 47 lines , 2560 datapoints
wavelength(nm)	intensity[arb. units]
585.996	11990.489
586.124	11643.553
586.252	11577.064
586.380	11670.277
586.508	11692.574
586.637	11776.553
586.765	11822.851
586.893	11819.511
587.021	11866.532
587.149	11934.617
587.277	11883.213
587.405	12036.723
587.533	11955.298
587.662	12062.149
587.790	12002.085
587.918	11926.319
588.046	11988.170
588.174	11917.745
588.302	12078.894
588.430	12021.064
588.558	11972.851
588.687	11963.255
588.815	11921.404
588.943	11943.894
589.071	11948.447
589.199	12067.213
589.327	11983.255
589.455	11956.170
589.583	12088.702
589.712	12036.255
589.840	12006.766
589.968	11942.553
590.096	12027.362
590.224	12019.085
590.352	12009.170
590.480	12023.000
590.608	12066.043
590.737	12137.638
590.865	12064.043
590.993	12038.723
591.121	12060.064
591.249	12080.021
591.377	12039.660
591.505	12084.426
591.633	12143.915
591.762	12094.574
591.890	12243.170
592.018	12106.979
592.146	12114.128
592.274	12126.936
592.402	12192.191
592.530	12187.894
592.658	12462.957
592.787	12249.979
592.915	12429.234
593.043	12254.574
593.171	12311.085
593.299	12375.957
593.427	12370.723
593.555	12429.128
593.683	12372.319
593.812	12438.702
593.940	12453.596
594.068	12503.745
594.196	12545.660
594.324	12529.681
594.452	12558.149
594.580	12635.830
594.708	12620.404
594.837	12624.043
594.965	12686.170
595.093	12747.064
595.221	12719.681
595.349	12911.915
595.477	12834.809
595.605	12825.745
595.733	12763.851
595.862	13036.489
595.990	12873.000
596.118	12905.149
596.246	13061.404
596.374	12958.489
596.502	12987.702
596.630	12956.255
596.758	12980.043
596.887	12982.277
597.015	13023.191
597.143	13007.915
597.271	13018.277
597.399	13033.936
597.527	13022.532
597.655	13013.936
597.783	13011.191
597.912	13041.128
598.040	13041.787
598.168	13044.957
598.296	13026.979
598.424	13033.000
598.552	13053.936
598.680	13001.830
598.808	13095.000
598.937	13062.000
599.065	12921.787
599.193	13054.553
599.321	13077.766
599.449	12983.191
599.577	13038.043
599.705	13042.532
599.833	12970.511
599.962	12988.362
600.090	13067.106
600.218	13128.362
600.346	13112.085
600.474	13081.489
600.602	13097.617
600.730	13181.617
600.858	13228.362
600.987	13350.426
601.115	13237.915
601.243	13293.766
601.371	13303.021
601.499	13322.191
601.627	13411.213
601.755	13461.000
601.883	13467.383
602.012	13540.809
602.140	13482.979
602.268	13671.149
602.396	13606.362
602.524	13751.553
602.652	13680.234
602.780	13736.574
602.908	13732.170
603.037	13780.340
603.165	13800.404
603.293	13835.064
603.421	13896.319
603.549	13939.277
603.677	14034.000
603.805	13990.766
603.933	13986.234
604.062	14147.553
604.190	14168.574
604.318	14254.766
604.446	14189.170
604.574	14265.383
604.702	14319.489
604.830	14334.064
604.958	14396.936
605.087	14418.404
605.215	14428.149
605.343	14451.021
605.471	14477.915
605.599	14536.383
605.727	14507.021
605.855	14572.553
605.983	14607.957
606.112	14577.426
606.240	14627.894
606.368	14630.340
606.496	14835.660
606.624	14649.085
606.752	14698.085
606.880	14835.404
607.008	14861.936
607.137	14866.149
607.265	14631.426
607.393	14785.085
607.521	14860.128
607.649	14772.021
607.777	14734.915
607.905	14750.766
608.033	14816.128
608.162	14752.213
608.290	14769.723
608.418	14686.404
608.546	14756.021
608.674	14739.894
608.802	14759.617
608.930	14740.277
609.058	14768.064
609.187	14848.723
609.315	14793.596
609.443	14822.532
609.571	14918.638
609.699	14757.638
609.827	14837.191
609.955	14799.596
610.083	14720.085
610.212	14768.638
610.340	14749.149
610.468	14854.872
610.596	14816.553
610.724	14826.681
610.852	14784.468
610.980	14854.723
611.108	14894.447
611.237	14752.574
611.365	14815.638
611.493	14813.128
611.621	14871.809
611.749	14887.745
611.877	14955.191
612.005	14922.894
612.133	15039.617
612.262	15044.660
612.390	15019.489
612.518	15035.766
612.646	15156.702
612.774	15097.277
612.902	15127.489
613.030	15205.957
613.158	15352.745
613.287	15272.213
613.415	15288.191
613.543	15290.553
613.671	15190.660
613.799	15364.617
613.927	15267.000
614.055	15316.277
614.183	15465.149
614.312	15334.745
614.440	15500.872
614.568	15409.702
614.696	15504.319
614.824	15654.340
614.952	15530.255
615.080	15569.468
615.208	15635.809
615.337	15689.532
615.465	15743.553
615.593	15923.809
615.721	16003.426
615.849	16077.128
615.977	16019.872
616.105	16101.532
616.233	16063.106
616.362	16138.872
616.490	16075.787
616.618	16132.383
616.746	16164.468
616.874	16246.872
617.002	16183.809
617.130	16300.362
617.258	16435.638
617.387	16326.213
617.515	16232.000
617.643	16326.319
617.771	16258.383
617.899	16325.638
618.027	16310.936
618.155	16427.383
618.283	16320.702
618.412	16363.362
618.540	16399.277
618.668	16386.638
618.796	16414.660
618.924	16529.979
619.052	16435.298
619.180	16458.574
619.308	16490.383
619.437	16470.106
619.565	16447.404
619.693	16368.894
619.821	16418.043
619.949	16422.745
620.077	16552.064
620.205	16516.511
620.333	16506.149
620.462	16518.404
620.590	16578.489
620.718	16446.809
620.846	16489.787
620.974	16547.511
621.102	16429.617
621.230	16462.638
621.358	16634.426
621.487	16481.787
621.615	16496.872
621.743	16571.128
621.871	16486.255
621.999	16551.489
622.127	16535.979
622.255	16554.702
622.383	16481.787
622.512	16459.064
622.640	16682.894
622.768	16456.915
622.896	16487.723
623.024	16507.787
623.152	16627.362
623.280	16553.553
623.408	16441.617
623.537	16538.596
623.665	16494.021
623.793	16548.021
623.921	16508.787
624.049	16468.957
624.177	16504.447
624.305	16508.149
624.433	16505.106
624.562	16502.872
624.690	16547.702
624.818	16558.128
624.946	16717.681
625.074	16617.298
625.202	16518.830
625.330	16539.596
625.458	16611.851
625.587	16619.596
625.715	16625.213
625.843	16690.809
625.971	16611.617
626.099	16643.489
626.227	16631.404
626.355	16571.383
626.483	16751.489
626.612	16651.872
626.740	16622.447
626.868	16778.021
626.996	16674.766
627.124	16676.915
627.252	16723.638
627.380	16728.298
627.508	16775.638
627.637	16722.702
627.765	16853.766
627.893	16839.128
628.021	16894.617
628.149	17090.702
628.277	17195.830
628.405	17225.362
628.533	16941.979
628.662	17021.511
628.790	16955.766
628.918	17023.021
629.046	17074.702
629.174	17239.277
629.302	17443.468
629.430	17276.404
629.558	17185.106
629.687	17211.362
629.815	17216.596
629.943	17257.532
630.071	17304.340
630.199	17330.447
630.327	17356.936
630.455	17376.404
630.583	17505.745
630.712	17419.745
630.840	17488.447
630.968	17463.809
631.096	17459.532
631.224	17488.532
631.352	17533.234
631.480	17602.362
631.608	17548.234
631.737	17662.766
631.865	17719.340
631.993	17569.383
632.121	17728.660
632.249	17682.574
632.377	17648.532
632.505	17638.851
632.633	17532.319
632.762	17599.149
632.890	17677.511
633.018	17572.979
633.146	17723.957
633.274	17599.043
633.402	17639.596
633.530	17491.723
633.658	17681.830
633.787	17505.085
633.915	17594.638
634.043	17542.681
634.171	17561.532
634.299	17507.213
634.427	17515.426
634.555	17482.383
634.683	17406.043
634.812	17406.064
634.940	17442.809
635.068	17354.426
635.196	17394.979
635.324	17330.766
635.452	17431.894
635.580	17260.766
635.708	17241.362
635.837	17328.255
635.965	17258.213
636.093	17155.660
636.221	17132.830
636.349	17228.872
636.477	17103.085
636.605	17323.745
636.733	17039.191
636.862	17029.447
636.990	17022.277
637.118	17067.936
637.246	16976.745
637.374	16965.766
637.502	16974.872
637.630	16933.128
637.758	16935.830
637.887	16902.489
638.015	16899.936
638.143	16895.574
638.271	16832.426
638.399	16813.340
638.527	16779.830
638.655	16783.745
638.783	16923.064
638.912	16797.319
639.040	16804.255
639.168	16815.043
639.296	16787.979
639.424	16908.915
639.552	16742.511
639.680	16887.787
639.808	16854.468
639.937	16792.809
640.065	16792.787
640.193	16853.404
640.321	16709.511
640.449	16847.957
640.577	16901.298
640.705	16837.617
640.833	16872.596
640.962	16784.064
641.090	16822.128
641.218	16854.298
641.346	16896.617
641.474	16896.638
641.602	16874.915
641.730	16898.809
641.858	16976.915
641.987	16962.000
642.115	16914.957
642.243	17026.468
642.371	16932.957
642.499	17011.915
642.627	17060.787
642.755	17162.915
642.883	17072.340
643.012	17117.191
643.140	17015.872
643.268	17081.149
643.396	17138.681
643.524	17267.319
643.652	17123.638
643.780	17105.404
643.908	17163.255
644.037	17255.468
644.165	17168.894
644.293	17189.532
644.421	17197.213
644.549	17266.106
644.677	17168.404
644.805	17205.851
644.933	17163.979
645.062	17167.851
645.190	17268.362
645.318	17255.489
645.446	17177.000
645.574	17204.915
645.702	17187.319
645.830	17389.064
645.958	17138.213
646.087	17390.085
646.215	17089.340
646.343	17332.277
646.471	17187.298
646.599	17186.638
646.727	17133.702
646.855	17056.851
646.983	17154.617
647.112	17125.128
647.240	17278.383
647.368	17113.234
647.496	17094.894
647.624	17057.979
647.752	16958.085
647.880	17004.596
648.008	16962.787
648.137	16963.043
648.265	16971.617
648.393	16917.170
648.521	16951.085
648.649	16891.340
648.777	16876.255
648.905	16866.426
649.033	16806.085
649.162	16820.787
649.290	16829.191
649.418	16766.021
649.546	16805.043
649.674	16757.234
649.802	16655.340
649.930	16819.574
650.058	16702.106
650.187	16585.979
650.315	16603.191
650.443	16645.915
650.571	16595.021
650.699	16606.809
650.827	16577.617
650.955	16519.723
651.083	16524.128
651.212	16549.617
651.340	16522.574
651.468	16514.787
651.596	16446.298
651.724	16363.660
651.852	16387.872
651.980	16397.255
652.108	16428.000
652.237	16373.255
652.365	16428.957
652.493	16327.872
652.621	16320.532
652.749	16367.553
652.877	16322.745
653.005	16348.319
653.133	16227.766
653.262	16324.915
653.390	16258.128
653.518	16333.723
653.646	16247.553
653.774	16400.511
653.902	16214.191
654.030	16236.340
654.158	16163.894
654.287	16175.660
654.415	16151.064
654.543	16154.085
654.671	16117.000
654.799	16167.638
654.927	16065.723
655.055	16091.638
655.183	16142.149
655.312	16079.404
655.440	16128.106
655.568	16033.383
655.696	16068.362
655.824	16163.298
655.952	16030.745
656.080	15914.532
656.208	16080.149
656.337	15921.277
656.465	15953.489
656.593	15958.660
656.721	15874.085
656.849	15911.277
656.977	15846.660
657.105	15812.532
657.233	15796.191
657.362	15759.511
657.490	15763.745
657.618	15723.532
657.746	15717.809
657.874	15663.319
658.002	15624.851
658.130	15696.319
658.258	15583.532
658.387	15661.468
658.515	15570.638
658.643	15568.106
658.771	15540.106
658.899	15603.085
659.027	15609.702
659.155	15565.702
659.283	15675.574
659.412	15503.553
659.540	15596.277
659.668	15444.149
659.796	15500.000
659.924	15520.957
660.052	15443.660
660.180	15452.468
660.308	15380.255
660.437	15382.723
660.565	15388.596
660.693	15361.319
660.821	15394.149
660.949	15340.596
661.077	15378.000
661.205	15326.170
661.333	15349.511
661.462	15396.319
661.590	15327.255
661.718	15496.128
661.846	15344.447
661.974	15483.766
662.102	15289.574
662.230	15322.830
662.358	15268.255
662.487	15303.255
662.615	15296.000
662.743	15255.532
662.871	15267.106
662.999	15239.340
663.127	15218.234
663.255	15372.809
663.383	15341.340
663.512	15300.489
663.640	15303.277
663.768	15244.745
663.896	15344.085
664.024	15273.915
664.152	15278.872
664.280	15393.447
664.408	15390.255
664.537	15349.745
664.665	15313.809
664.793	15228.128
664.921	15237.660
665.049	15308.277
665.177	15280.213
665.305	15290.277
665.433	15253.021
665.562	15254.298
665.690	15312.021
665.818	15444.319
665.946	15312.851
666.074	15235.766
666.202	15286.723
666.330	15309.085
666.458	15290.745
666.587	15229.106
666.715	15277.213
666.843	15263.596
666.971	15272.064
667.099	15307.383
667.227	15278.404
667.355	15224.660
667.483	15246.957
667.612	15262.596
667.740	15278.894
667.868	15331.362
667.996	15302.340
668.124	15199.894
668.252	15245.830
668.380	15276.362
668.508	15240.234
668.637	15236.000
668.765	15218.277
668.893	15286.894
669.021	15171.043
669.149	15253.021
669.277	15320.532
669.405	15169.511
669.533	15234.766
669.662	15450.106
669.790	15207.745
669.918	15280.383
670.046	15164.000
670.174	15271.085
670.302	15203.426
670.430	15122.128
670.558	15181.511
670.687	15088.894
670.815	15260.957
670.943	15111.872
671.071	15061.149
671.199	15036.468
671.327	14961.574
671.455	15028.915
671.583	15026.362
671.712	15152.383
671.840	15008.532
671.968	14886.723
672.096	14862.851
672.224	14876.511
672.352	15041.681
672.480	14872.362
672.608	14859.872
672.737	14778.000
672.865	14883.362
672.993	14781.553
673.121	14645.447
673.249	14629.468
673.377	14649.021
673.505	14573.979
673.633	14533.766
673.762	14531.638
673.890	14500.277
674.018	14765.681
674.146	14436.340
674.274	14502.489
674.402	14541.596
674.530	14451.277
674.658	14348.362
674.787	14336.234
674.915	14298.851
675.043	14340.553
675.171	14248.234
675.299	14252.234
675.427	14304.553
675.555	14122.809
675.683	14168.681
675.812	14092.894
675.940	14122.830
676.068	14067.617
676.196	14023.894
676.324	14005.085
676.452	13963.894
676.580	13919.723
676.708	13951.596
676.837	13936.277
676.965	13826.596
677.093	13844.830
677.221	13812.468
677.349	13791.809
677.477	13812.872
677.605	13734.617
677.733	13771.766
677.862	13691.872
677.990	13627.383
678.118	13673.128
678.246	13663.404
678.374	13655.553
678.502	13559.553
678.630	13600.404
678.758	13589.191
678.887	13550.745
679.015	13508.702
679.143	13480.468
679.271	13478.532
679.399	13499.213
679.527	13460.000
679.655	13409.213
679.783	13433.617
679.912	13480.511
680.040	13424.787
680.168	13422.468
680.296	13456.745
680.424	13383.574
680.552	13375.787
680.680	13379.255
680.808	13287.106
680.937	13314.872
681.065	13313.404
681.193	13330.766
681.321	13384.872
681.449	13287.255
681.577	13336.851
681.705	13291.638
681.833	13279.128
681.962	13274.319
682.090	13473.043
682.218	13258.319
682.346	13239.532
682.474	13244.511
682.602	13294.340
682.730	13271.213
682.858	13206.596
682.987	13292.511
683.115	13270.915
683.243	13179.085
683.371	13177.468
683.499	13280.851
683.627	13254.660
683.755	13221.979
683.883	13358.596
684.012	13209.149
684.140	13171.830
684.268	13177.957
684.396	13212.085
684.524	13266.702
684.652	13274.234
684.780	13214.489
684.908	13210.191
685.037	13134.277
685.165	13178.277
685.293	13143.787
685.421	13211.043
685.549	13083.489
685.677	13124.000
685.805	13249.191
685.933	13159.851
686.062	13099.979
686.190	13070.234
686.318	13112.660
686.446	13089.255
686.574	13040.404
686.702	13162.319
686.830	13040.574
686.958	13024.234
687.087	13021.191
687.215	13035.936
687.343	12952.426
687.471	12982.702
687.599	12942.809
687.727	13132.319
687.855	12951.660
687.983	12955.277
688.112	13033.383
688.240	12903.426
688.368	12843.447
688.496	12873.277
688.624	12905.574
688.752	12802.723
688.880	12838.319
689.008	12835.830
689.137	12796.830
689.265	12711.957
689.393	12734.149
689.521	12705.085
689.649	12670.979
689.777	12682.043
689.905	12688.532
690.033	12622.787
690.162	12628.809
690.290	12606.362
690.418	12528.511
690.546	12650.128
690.674	12641.340
690.802	12551.574
690.930	12525.596
691.058	12551.702
691.187	12520.745
691.315	12485.213
691.443	12513.851
691.571	12405.000
691.699	12487.766
691.827	12484.447
691.955	12391.596
692.083	12376.191
692.212	12470.128
692.340	12334.468
692.468	12337.532
692.596	12340.957
692.724	12421.319
692.852	12227.426
692.980	12358.596
693.108	12245.298
693.237	12199.085
693.365	12162.128
693.493	12156.809
693.621	12149.957
693.749	12081.340
693.877	12076.191
694.005	12175.511
694.133	12112.277
694.262	12084.234
694.390	12004.447
694.518	12035.702
694.646	11996.426
694.774	11970.213
694.902	12073.128
695.030	12043.532
695.158	11900.085
695.287	11899.170
695.415	11894.149
695.543	11839.660
695.671	11959.340
695.799	11932.957
695.927	11816.085
696.055	11843.170
696.183	11779.574
696.312	11803.404
696.440	11936.149
696.568	11893.043
696.696	11858.255
696.824	11688.660
696.952	11674.638
697.080	11704.681
697.208	11593.468
697.337	11731.064
697.465	11647.532
697.593	11595.277
697.721	11634.149
697.849	11584.723
697.977	11644.213
698.105	11616.362
698.233	11531.872
698.362	11542.702
698.490	11515.702
698.618	11537.064
698.746	11543.383
698.874	11522.170
699.002	11676.426
699.130	11481.702
699.258	11467.277
699.387	11420.979
699.515	11433.064
699.643	11380.596
699.771	11430.234
699.899	11339.511
700.027	11362.745
700.155	11295.085
700.283	11324.340
700.412	11317.745
700.540	11204.191
700.668	11274.723
700.796	11193.404
700.924	11204.234
701.052	11189.340
701.180	11290.681
701.308	11093.830
701.437	11051.149
701.565	11122.532
701.693	11032.681
701.821	11021.936
701.949	11018.745
702.077	11013.915
702.205	10959.681
702.333	10907.170
702.462	10844.979
702.590	10877.447
702.718	10835.170
702.846	10826.915
702.974	10767.043
703.102	10799.149
703.230	10872.979
703.358	10701.426
703.487	10673.106
703.615	10843.340
703.743	10643.404
703.871	10627.872
703.999	10636.468
704.127	10682.723
704.255	10497.277
704.383	10692.681
704.512	10468.745
704.640	10451.702
704.768	10367.979
704.896	10437.000
705.024	10298.957
705.152	10429.681
705.280	10271.766
705.408	10240.128
705.537	10238.511
705.665	10187.447
705.793	10172.383
705.921	10151.234
706.049	10144.255
706.177	10037.234
706.305	10072.787
706.433	10109.255
706.562	9992.830
706.690	9963.574
706.818	9947.234
706.946	10194.426
707.074	9912.319
707.202	9854.128
707.330	9905.277
707.458	9857.362
707.587	9808.043
707.715	9827.979
707.843	9845.574
707.971	9809.894
708.099	9816.468
708.227	9731.660
708.355	9736.000
708.483	9681.574
708.612	9656.234
708.740	9713.979
708.868	9739.809
708.996	9657.255
709.124	9651.213
709.252	9575.468
709.380	9543.191
709.508	9618.319
709.637	9492.468
709.765	9509.894
709.893	9557.340
710.021	9498.957
710.149	9469.043
710.277	9543.851
710.405	9431.596
710.533	9424.894
710.662	9416.936
710.790	9401.745
710.918	9459.277
711.046	9409.894
711.174	9399.234
711.302	9380.319
711.430	9467.106
711.558	9305.447
711.687	9309.894
711.815	9350.745
711.943	9318.000
712.071	9301.787
712.199	9301.021
712.327	9309.383
712.455	9212.809
712.583	9305.872
712.712	9225.979
712.840	9231.021
712.968	9227.234
713.096	9280.936
713.224	9192.511
713.352	9191.936
713.480	9148.447
713.608	9163.830
713.737	9169.447
713.865	9199.787
713.993	9206.213
714.121	9068.532
714.249	9161.872
714.377	9219.957
714.505	9168.106
714.633	9268.426
714.762	9133.447
714.890	9085.745
715.018	9108.745
715.146	9121.915
715.274	9186.596
715.402	9244.489
715.530	9148.489
715.658	9039.340
715.787	9061.383
715.915	9230.319
716.043	9042.489
716.171	9113.915
716.299	9101.426
716.427	9074.745
716.555	8987.000
716.683	8999.298
716.812	8979.234
716.940	8994.638
717.068	8898.064
717.196	9098.745
717.324	9002.043
717.452	8909.000
717.580	8869.234
717.708	8917.021
717.837	8978.064
717.965	8853.191
718.093	8881.340
718.221	8806.532
718.349	8850.191
718.477	8831.319
718.605	8872.979
718.733	8790.426
718.862	8791.191
718.990	8708.447
719.118	8768.936
719.246	8725.426
719.374	8766.957
719.502	8682.915
719.630	8827.702
719.758	8644.851
719.887	8635.277
720.015	8777.106
720.143	8586.362
720.271	8569.362
720.399	8588.532
720.527	8589.064
720.655	8599.723
720.783	8608.936
720.912	8525.043
721.040	8527.255
721.168	8428.872
721.296	8507.170
721.424	8441.319
721.552	8342.340
721.680	8398.383
721.808	8415.255
721.937	8357.723
722.065	8435.766
722.193	8479.362
722.321	8253.447
722.449	8254.106
722.577	8195.298
722.705	8183.426
722.833	8236.617
722.962	8270.915
723.090	8153.149
723.218	8112.340
723.346	8136.702
723.474	8140.766
723.602	8217.851
723.730	8142.745
723.858	8196.362
723.987	8095.702
724.115	8081.766
724.243	8019.660
724.371	8031.000
724.499	8032.511
724.627	7912.489
724.755	7943.404
724.883	7916.149
725.012	7858.170
725.140	7946.489
725.268	7888.723
725.396	7808.383
725.524	7768.128
725.652	7806.872
725.780	7752.787
725.908	7854.787
726.037	7892.489
726.165	7715.021
726.293	7663.723
726.421	7665.979
726.549	7657.745
726.677	7636.766
726.805	7635.426
726.933	7582.638
727.062	7642.383
727.190	7571.255
727.318	7548.511
727.446	7558.894
727.574	7539.064
727.702	7671.809
727.830	7469.085
727.958	7562.064
728.087	7478.489
728.215	7594.426
728.343	7534.894
728.471	7402.489
728.599	7423.894
728.727	7503.021
728.855	7363.383
728.983	7367.149
729.112	7350.511
729.240	7359.043
729.368	7334.255
729.496	7336.851
729.624	7336.489
729.752	7296.957
729.880	7332.638
730.008	7299.043
730.137	7245.511
730.265	7435.915
730.393	7227.106
730.521	7337.064
730.649	7200.957
730.777	7275.298
730.905	7209.426
731.033	7305.553
731.162	7415.043
731.290	7315.553
731.418	7411.830
731.546	7314.383
731.674	7203.191
731.802	7240.362
731.930	7120.426
732.058	7081.872
732.187	7105.872
732.315	7083.447
732.443	7056.000
732.571	7240.447
732.699	7126.064
732.827	7119.468
732.955	7049.319
733.083	7026.830
733.212	7108.830
733.340	7074.106
733.468	7091.277
733.596	6979.617
733.724	7021.298
733.852	6963.149
733.980	6989.936
734.108	7189.894
734.237	7068.809
734.365	7092.255
734.493	6968.426
734.621	6960.149
734.749	6966.489
734.877	6972.894
735.005	6983.872
735.133	7005.830
735.262	7026.489
735.390	6899.681
735.518	7022.021
735.646	6881.596
735.774	6858.936
735.902	6910.021
736.030	6841.957
736.158	6916.383
736.287	6805.213
736.415	7063.170
736.543	6861.085
736.671	6812.553
736.799	6827.255
736.927	6875.872
737.055	6847.617
737.183	6919.106
737.312	6861.021
737.440	6841.787
737.568	6814.191
737.696	6793.000
737.824	6800.191
737.952	6808.766
738.080	6736.702
738.208	6783.000
738.337	6788.979
738.465	6785.043
738.593	6700.894
738.721	6657.277
738.849	6696.468
738.977	6739.383
739.105	6734.255
739.233	6641.043
739.362	6670.787
739.490	6618.468
739.618	6596.511
739.746	6587.681
739.874	6760.894
740.002	6698.468
740.130	6641.660
740.258	6545.277
740.387	6491.447
740.515	6681.128
740.643	6467.404
740.771	6525.638
740.899	6500.596
741.027	6545.340
741.155	6597.447
741.283	6445.383
741.412	6399.404
741.540	6447.085
741.668	6516.894
741.796	6570.000
741.924	6426.894
742.052	6369.574
742.180	6495.000
742.308	6341.426
742.437	6324.468
742.565	6459.404
742.693	6476.468
742.821	6368.511
742.949	6322.936
743.077	6277.851
743.205	6244.149
743.333	6235.043
743.462	6241.043
743.590	6247.255
743.718	6149.447
743.846	6170.894
743.974	6165.213
744.102	6289.362
744.230	6168.596
744.358	6096.638
744.487	6069.596
744.615	6126.957
744.743	6027.745
744.871	6009.830
744.999	6094.553
745.127	6051.213
745.255	5946.277
745.383	5986.447
745.512	5997.298
745.640	5927.447
745.768	5956.830
745.896	5953.362
746.024	5880.468
746.152	5913.085
746.280	5852.149
746.408	5905.872
746.537	5930.277
746.665	5864.128
746.793	5880.894
746.921	5834.106
747.049	5964.872
747.177	5860.745
747.305	5812.702
747.433	5796.915
747.562	5692.957
747.690	5787.532
747.818	5738.170
747.946	5678.043
748.074	5756.149
748.202	5699.681
748.330	5775.894
748.458	5654.149
748.587	5639.319
748.715	5553.766
748.843	5632.489
748.971	5621.277
749.099	5562.426
749.227	5594.638
749.355	5499.532
749.483	5523.617
749.612	5517.213
749.740	5524.064
749.868	5559.830
749.996	5475.638
750.124	5414.915
750.252	5444.191
750.380	5371.340
750.508	5416.064
750.637	5409.085
750.765	5422.638
750.893	5349.106
751.021	5309.745
751.149	5523.000
751.277	5381.681
751.405	5369.681
751.533	5421.489
751.662	5354.617
751.790	5395.851
751.918	5352.447
752.046	5268.851
752.174	5186.362
752.302	5430.170
752.430	5273.681
752.558	5134.021
752.687	5129.255
752.815	5181.872
752.943	5229.149
753.071	5218.064
753.199	5094.064
753.327	5164.085
753.455	5224.979
753.583	5080.894
753.712	5112.702
753.840	5013.340
753.968	5070.404
754.096	4939.872
754.224	4934.532
754.352	4929.851
754.480	4908.936
754.608	4898.894
754.737	4854.170
754.865	4996.404
754.993	4877.894
755.121	4821.340
755.249	4867.787
755.377	4799.064
755.505	4767.106
755.633	4804.809
755.762	4721.766
755.890	4855.170
756.018	4841.894
756.146	4833.468
756.274	4726.149
756.402	4673.894
756.530	4667.830
756.658	4656.043
756.787	4658.128
756.915	4589.362
757.043	4669.787
757.171	4605.766
757.299	4522.553
757.427	4539.894
757.555	4484.702
757.683	4528.000
757.812	4442.319
757.940	4453.787
758.068	4567.340
758.196	4563.149
758.324	4372.936
758.452	4502.511
758.580	4474.617
758.708	4325.787
758.837	4261.596
758.965	4368.255
759.093	4377.702
759.221	4200.404
759.349	4234.170
759.477	4353.170
759.605	4203.723
759.733	4181.319
759.862	4175.213
759.990	4093.277
760.118	4074.383
760.246	4059.532
760.374	4245.319
760.502	4033.702
760.630	4013.702
760.758	4008.638
760.887	3934.894
761.015	4026.085
761.143	3893.723
761.271	3902.681
761.399	3837.064
761.527	3826.149
761.655	3875.404
761.783	3792.787
761.912	3729.532
762.040	3742.851
762.168	3773.191
762.296	3704.723
762.424	3663.340
762.552	3710.553
762.680	3774.319
762.808	3639.596
762.937	3594.553
763.065	3675.234
763.193	3632.149
763.321	3587.362
763.449	3581.043
763.577	3507.362
763.705	3499.362
763.833	3561.447
763.962	3515.319
764.090	3601.149
764.218	3468.255
764.346	3454.574
764.474	3408.277
764.602	3400.681
764.730	3381.085
764.858	3472.596
764.987	3332.340
765.115	3405.532
765.243	3389.957
765.371	3293.851
765.499	3309.191
765.627	3259.872
765.755	3265.915
765.883	3356.638
766.012	3243.894
766.140	3207.872
766.268	3206.064
766.396	3262.213
766.524	3197.277
766.652	3209.936
766.780	3183.702
766.908	3196.149
767.037	3109.979
767.165	3115.128
767.293	3185.149
767.421	3263.872
767.549	3127.681
767.677	3145.191
767.805	3073.277
767.933	3085.213
768.062	3105.894
768.190	3224.340
768.318	3058.851
768.446	3089.255
768.574	3098.766
768.702	3066.021
768.830	2998.851
768.958	3039.149
769.087	2964.851
769.215	2979.511
769.343	3060.915
769.471	2995.596
769.599	3039.787
769.727	2998.511
769.855	2973.596
769.983	2942.702
770.112	2915.553
770.240	2935.170
770.368	2891.894
770.496	2934.000
770.624	3004.723
770.752	2975.915
770.880	2960.149
771.008	2918.851
771.137	2892.191
771.265	2909.702
771.393	2869.255
771.521	2909.702
771.649	2842.213
771.777	2876.234
771.905	2852.213
772.033	2843.702
772.162	2996.277
772.290	2861.064
772.418	2923.745
772.546	2818.362
772.674	2808.383
772.802	2822.894
772.930	2823.106
773.058	2920.809
773.187	2795.936
773.315	2768.489
773.443	2760.532
773.571	2779.936
773.699	2742.340
773.827	2747.894
773.955	2769.277
774.083	2916.617
774.212	2717.128
774.340	2790.872
774.468	2698.638
774.596	2762.723
774.724	2694.489
774.852	2773.660
774.980	2722.511
775.108	2667.681
775.237	2712.191
775.365	2646.213
775.493	2648.766
775.621	2673.830
775.749	2653.702
775.877	2645.830
776.005	2647.617
776.133	2634.596
776.262	2641.000
776.390	2615.255
776.518	2652.532
776.646	2607.979
776.774	2635.128
776.902	2584.532
777.030	2585.447
777.158	2583.064
777.287	2610.277
777.415	2572.085
777.543	2556.574
777.671	2558.936
777.799	2549.319
777.927	2544.319
778.055	2634.489
778.183	2545.681
778.312	2500.553
778.440	2507.255
778.568	2534.894
778.696	2513.596
778.824	2594.723
778.952	2539.404
779.080	2514.383
779.208	2545.830
779.337	2498.723
779.465	2471.745
779.593	2536.021
779.721	2488.638
779.849	2502.170
779.977	2474.149
780.105	2450.830
780.233	2484.489
780.362	2451.128
780.490	2477.404
780.618	2444.319
780.746	2458.383
780.874	2433.553
781.002	2438.319
781.130	2429.213
781.258	2405.936
781.387	2422.809
781.515	2413.106
781.643	2374.468
781.771	2426.447
781.899	2399.085
782.027	2426.234
782.155	2384.638
782.283	2367.043
782.412	2343.723
782.540	2325.723
782.668	2362.021
782.796	2331.809
782.924	2335.809
783.052	2289.128
783.180	2324.745
783.308	2300.681
783.437	2282.681
783.565	2293.851
783.693	2277.362
783.821	2256.255
783.949	2224.532
784.077	2247.255
784.205	2224.234
784.333	2262.170
784.462	2186.213
784.590	2208.234
784.718	2216.723
784.846	2193.128
784.974	2223.681
785.102	2243.426
785.230	2172.766
785.358	2178.170
785.487	2185.979
785.615	2171.213
785.743	2143.213
785.871	2136.532
785.999	2124.532
786.127	2118.340
786.255	2134.234
786.383	2114.809
786.512	2119.213
786.640	2092.702
786.768	2092.319
786.896	2083.851
787.024	2074.979
787.152	2081.532
787.280	2079.085
787.408	2040.404
787.537	2071.638
787.665	2041.723
787.793	2049.404
787.921	2014.553
788.049	2022.511
788.177	1990.894
788.305	1971.723
788.433	2005.064
788.562	1972.234
788.690	1965.574
788.818	1973.043
788.946	1965.830
789.074	1959.362
789.202	1982.723
789.330	1940.447
789.458	1891.255
789.587	1966.213
789.715	1919.787
789.843	1901.936
789.971	1916.404
790.099	1875.319
790.227	1912.745
790.355	1861.085
790.483	1884.511
790.612	1853.170
790.740	1864.660
790.868	1844.234
790.996	1826.085
791.124	1811.936
791.252	1811.894
791.380	1816.234
791.508	1818.106
791.637	1791.915
791.765	1770.489
791.893	1758.553
792.021	1784.596
792.149	1759.745
792.277	1738.851
792.405	1732.128
792.533	1774.702
792.662	1719.383
792.790	1697.617
792.918	1704.255
793.046	1696.085
793.174	1728.255
793.302	1704.128
793.430	1694.085
793.558	1656.489
793.687	1661.915
793.815	1642.383
793.943	1670.979
794.071	1665.426
794.199	1630.957
794.327	1626.149
794.455	1692.426
794.583	1709.064
794.712	1583.191
794.840	1588.872
794.968	1598.191
795.096	1597.468
795.224	1551.468
795.352	1556.128
795.480	1579.574
795.608	1546.021
795.737	1551.319
795.865	1501.830
795.993	1508.830
796.121	1487.638
796.249	1495.298
796.377	1513.383
796.505	1491.809
796.633	1473.021
796.762	1467.149
796.890	1474.043
797.018	1457.830
797.146	1436.617
797.274	1429.617
797.402	1442.702
797.530	1434.106
797.658	1410.638
797.787	1434.043
797.915	1406.064
798.043	1420.106
798.171	1379.213
798.299	1381.340
798.427	1375.234
798.555	1383.723
798.683	1325.830
798.812	1351.681
798.940	1403.191
799.068	1337.936
799.196	1358.447
799.324	1321.702
799.452	1331.468
799.580	1299.043
799.708	1349.702
799.837	1282.404
799.965	1287.766
800.093	1296.213
800.221	1252.596
800.349	1288.383
800.477	1261.936
800.605	1269.064
800.733	1254.298
800.862	1254.021
800.990	1270.468
801.118	1218.404
801.246	1207.170
801.374	1243.383
801.502	1217.702
801.630	1201.872
801.758	1202.723
801.887	1221.489
802.015	1194.936
802.143	1168.426
802.271	1210.021
802.399	1179.830
802.527	1163.872
802.655	1186.468
802.783	1194.085
802.912	1149.915
803.040	1131.255
803.168	1124.149
803.296	1120.298
803.424	1138.723
803.552	1123.149
803.680	1120.915
803.808	1113.511
803.937	1115.404
804.065	1089.213
804.193	1098.596
804.321	1125.872
804.449	1070.043
804.577	1084.596
804.705	1085.830
804.833	1103.383
804.962	1045.596
805.090	1076.319
805.218	1056.511
805.346	1056.255
805.474	1047.000
805.602	1037.617
805.730	1028.596
805.858	1026.638
805.987	1017.660
806.115	1025.468
806.243	1024.085
806.371	1035.511
806.499	1106.277
806.627	1131.787
806.755	1105.319
806.883	1002.426
807.012	986.362
807.140	1015.574
807.268	991.596
807.396	974.979
807.524	959.362
807.652	975.319
807.780	1015.234
807.908	955.021
808.037	992.660
808.165	969.936
808.293	953.043
808.421	977.234
808.549	924.085
808.677	931.319
808.805	959.596
808.933	949.085
809.062	936.489
809.190	978.638
809.318	913.277
809.446	913.426
809.574	957.681
809.702	894.106
809.830	905.936
809.958	893.128
810.087	887.149
810.215	906.489
810.343	889.532
810.471	893.106
810.599	869.511
810.727	872.043
810.855	853.170
810.983	863.000
811.112	882.723
811.240	857.809
811.368	863.745
811.496	892.383
811.624	862.000
811.752	832.404
811.880	843.106
812.008	819.085
812.137	847.872
812.265	811.128
812.393	832.511
812.521	847.787
812.649	818.128
812.777	794.745
812.905	834.149
813.033	789.787
813.162	777.468
813.290	788.319
813.418	801.638
813.546	778.979
813.674	774.787
813.802	787.809
813.930	775.021
814.058	766.702
814.187	767.085
814.315	767.383
814.443	776.021
814.571	775.106
814.699	791.851
814.827	751.766
814.955	740.745
815.083	771.000
815.212	762.340
815.340	772.255
815.468	721.043
815.596	751.532
815.724	734.255
815.852	717.319
815.980	714.809
816.108	724.277
816.237	713.894
816.365	708.787
816.493	723.532
816.621	704.362
816.749	711.340
816.877	709.021
817.005	720.851
817.133	706.979
817.262	694.894
817.390	688.553
817.518	686.830
817.646	697.489
817.774	675.447
817.902	672.149
818.030	660.660
818.158	703.787
818.287	677.638
818.415	660.574
818.543	665.936
818.671	673.660
818.799	651.043
818.927	668.213
819.055	655.170
819.183	634.723
819.312	642.872
819.440	639.532
819.568	630.340
819.696	636.830
819.824	651.894
819.952	625.298
820.080	629.468
820.208	617.894
820.337	616.000
820.465	655.043
820.593	615.447
820.721	609.383
820.849	614.723
820.977	603.404
821.105	603.319
821.233	582.915
821.362	625.128
821.490	577.043
821.618	588.234
821.746	587.745
821.874	594.511
822.002	586.468
822.130	578.745
822.258	566.489
822.387	566.170
822.515	591.596
822.643	587.383
822.771	578.957
822.899	571.851
823.027	602.830
823.155	549.638
823.283	541.809
823.412	563.617
823.540	554.553
823.668	597.468
823.796	540.830
823.924	578.128
824.052	569.553
824.180	555.596
824.308	523.362
824.437	541.000
824.565	529.043
824.693	549.362
824.821	539.574
824.949	529.426
825.077	534.468
825.205	557.851
825.333	533.702
825.462	537.298
825.590	523.809
825.718	549.128
825.846	516.170
825.974	503.106
826.102	511.191
826.230	501.468
826.358	510.128
826.487	498.638
826.615	547.872
826.743	487.277
826.871	518.830
826.999	551.426
827.127	506.234
827.255	494.426
827.383	491.043
827.512	510.319
827.640	484.957
827.768	472.213
827.896	492.957
828.024	480.872
828.152	473.319
828.280	474.128
828.408	474.340
828.537	477.043
828.665	479.723
828.793	469.319
828.921	462.085
829.049	488.574
829.177	464.596
829.305	458.660
829.433	463.106
829.562	472.553
829.690	446.766
829.818	482.383
829.946	451.745
830.074	466.809
830.202	472.702
830.330	476.043
830.458	496.170
830.587	447.170
830.715	437.745
830.843	435.532
830.971	458.745
831.099	472.340
831.227	432.255
831.355	435.511
831.483	441.766
831.612	456.936
831.740	432.936
831.868	438.702
831.996	429.128
832.124	423.745
832.252	417.085
832.380	438.106
832.508	476.851
832.637	414.894
832.765	427.021
832.893	456.043
833.021	409.574
833.149	408.574
833.277	421.064
833.405	404.319
833.533	410.766
833.662	410.170
833.790	406.872
833.918	408.064
834.046	445.468
834.174	410.596
834.302	402.234
834.430	386.064
834.558	408.617
834.687	416.426
834.815	391.234
834.943	407.277
835.071	408.957
835.199	405.681
835.327	426.404
835.455	391.021
835.583	420.404
835.712	385.957
835.840	390.787
835.968	388.277
836.096	441.383
836.224	404.830
836.352	370.043
836.480	397.043
836.608	397.702
836.737	380.532
836.865	373.809
836.993	389.340
837.121	385.957
837.249	369.426
837.377	394.553
837.505	383.128
837.633	373.340
837.762	372.511
837.890	400.511
838.018	403.383
838.146	405.213
838.274	379.851
838.402	398.255
838.530	370.085
838.658	350.702
838.787	372.915
838.915	372.957
839.043	349.681
839.171	384.851
839.299	351.723
839.427	368.830
839.555	365.489
839.683	384.702
839.812	393.128
839.940	349.787
840.068	374.085
840.196	359.128
840.324	348.723
840.452	351.723
840.580	389.702
840.708	356.128
840.837	382.191
840.965	341.660
841.093	356.872
841.221	344.021
841.349	357.362
841.477	351.000
841.605	358.340
841.733	341.574
841.862	356.021
841.990	399.000
842.118	327.511
842.246	339.681
842.374	343.979
842.502	324.723
842.630	350.915
842.758	358.298
842.887	332.000
843.015	343.149
843.143	351.128
843.271	337.362
843.399	369.234
843.527	339.830
843.655	321.532
843.783	330.000
843.912	333.426
844.040	357.702
844.168	328.809
844.296	318.213
844.424	319.766
844.552	335.532
844.680	354.596
844.808	347.617
844.937	327.319
845.065	324.383
845.193	345.489
845.321	325.553
845.449	320.064
845.577	333.191
845.705	315.021
845.833	313.404
845.962	324.000
846.090	311.851
846.218	322.979
846.346	327.404
846.474	333.021
846.602	310.617
846.730	345.021
846.858	332.617
846.987	314.191
847.115	296.340
847.243	330.979
847.371	338.979
847.499	326.745
847.627	310.319
847.755	302.000
847.883	311.511
848.012	320.766
848.140	309.064
848.268	320.383
848.396	291.064
848.524	326.851
848.652	284.043
848.780	306.277
848.908	310.277
849.037	304.319
849.165	313.723
849.293	314.085
849.421	325.830
849.549	311.426
849.677	308.766
849.805	305.809
849.933	304.298
850.062	291.064
850.190	298.468
850.318	305.128
850.446	294.106
850.574	289.681
850.702	300.596
850.830	297.128
850.958	307.660
851.087	289.553
851.215	306.191
851.343	291.298
851.471	293.957
851.599	299.681
851.727	298.277
851.855	344.426
851.983	303.596
852.112	298.681
852.240	282.043
852.368	291.745
852.496	283.745
852.624	286.511
852.752	292.447
852.880	273.043
853.008	284.872
853.137	294.915
853.265	302.723
853.393	291.277
853.521	312.468
853.649	288.809
853.777	275.638
853.905	291.021
854.033	283.170
854.162	343.021
854.290	284.702
854.418	270.277
854.546	273.681
854.674	381.085
854.802	280.574
854.930	270.596
855.058	269.936
855.187	264.213
855.315	302.043
855.443	263.426
855.571	279.340
855.699	279.234
855.827	274.830
855.955	275.426
856.083	273.894
856.212	292.872
856.340	281.128
856.468	321.085
856.596	299.468
856.724	277.191
856.852	276.872
856.980	278.213
857.108	285.106
857.237	262.660
857.365	301.660
857.493	269.489
857.621	263.149
857.749	280.809
857.877	290.043
858.005	296.489
858.133	268.128
858.262	271.553
858.390	266.660
858.518	257.702
858.646	258.936
858.774	262.553
858.902	247.213
859.030	265.532
859.158	275.638
859.287	279.149
859.415	300.638
859.543	258.298
859.671	261.830
859.799	281.319
859.927	271.404
860.055	267.000
860.183	275.000
860.312	267.660
860.440	271.511
860.568	266.809
860.696	252.021
860.824	334.383
860.952	307.553
861.080	263.319
861.208	265.468
861.337	272.638
861.465	293.191
861.593	299.277
861.721	268.191
861.849	263.851
861.977	251.064
862.105	274.447
862.233	290.787
862.362	263.532
862.490	284.106
862.618	246.872
862.746	261.128
862.874	255.979
863.002	255.149
863.130	285.085
863.258	260.915
863.387	273.213
863.515	276.809
863.643	272.723
863.771	332.447
863.899	260.319
864.027	246.787
864.155	250.702
864.283	282.255
864.412	253.489
864.540	258.319
864.668	251.957
864.796	258.957
864.924	260.553
865.052	264.277
865.180	250.660
865.308	233.936
865.437	268.000
865.565	261.021
865.693	287.638
865.821	258.255
865.949	272.553
866.077	254.149
866.205	260.468
866.333	268.681
866.462	246.489
866.590	256.681
866.718	262.447
866.846	256.106
866.974	262.638
867.102	269.766
867.230	284.574
867.358	253.085
867.487	248.298
867.615	276.298
867.743	256.702
867.871	263.766
867.999	264.000
868.127	253.085
868.255	305.787
868.383	300.128
868.512	248.043
868.640	247.447
868.768	243.872
868.896	240.787
869.024	277.255
869.152	253.638
869.280	262.085
869.408	288.830
869.537	243.872
869.665	321.574
869.793	246.277
869.921	282.702
870.049	257.213
870.177	255.340
870.305	296.426
870.433	239.362
870.562	263.894
870.690	237.766
870.818	243.617
870.946	259.277
871.074	281.745
871.202	265.723
871.330	272.426
871.458	230.766
871.587	246.511
871.715	255.660
871.843	238.426
871.971	242.830
872.099	251.851
872.227	245.872
872.355	255.191
872.483	257.851
872.612	263.021
872.740	257.277
872.868	238.681
872.996	246.638
873.124	244.128
873.252	248.851
873.380	243.979
873.508	242.319
873.637	259.255
873.765	239.447
873.893	290.426
874.021	252.255
874.149	242.723
874.277	254.447
874.405	242.340
874.533	241.000
874.662	1146.766
874.790	251.787
874.918	279.489
875.046	266.553
875.174	258.617
875.302	229.638
875.430	279.426
875.558	257.830
875.687	258.064
875.815	245.872
875.943	240.170
876.071	256.702
876.199	271.447
876.327	293.894
876.455	247.191
876.583	262.809
876.712	245.000
876.840	254.936
876.968	290.872
877.096	234.532
877.224	233.447
877.352	296.277
877.480	230.340
877.608	250.447
877.737	253.255
877.865	241.638
877.993	259.234
878.121	231.723
878.249	240.319
878.377	239.255
878.505	247.106
878.633	251.149
878.762	237.851
878.890	230.511
879.018	307.851
879.146	251.936
879.274	225.128
879.402	259.489
879.530	255.979
879.658	232.894
879.787	240.979
879.915	237.191
880.043	268.915
880.171	230.213
880.299	258.340
880.427	247.000
880.555	243.596
880.683	259.681
880.812	233.191
880.940	271.936
881.068	223.745
881.196	234.511
881.324	250.872
881.452	229.340
881.580	261.894
881.708	260.574
881.837	252.872
881.965	245.872
882.093	252.319
882.221	226.043
882.349	271.511
882.477	263.319
882.605	255.426
882.733	236.319
882.862	280.936
882.990	253.191
883.118	232.085
883.246	246.128
883.374	241.596
883.502	237.489
883.630	224.957
883.758	237.043
883.887	253.872
884.015	228.723
884.143	235.362
884.271	248.872
884.399	236.362
884.527	235.404
884.655	224.000
884.783	255.149
884.912	255.362
885.040	236.894
885.168	298.298
885.296	226.766
885.424	251.149
885.552	252.255
885.680	240.319
885.808	233.894
885.937	249.660
886.065	254.106
886.193	225.021
886.321	282.170
886.449	228.894
886.577	287.255
886.705	234.277
886.833	228.617
886.962	229.489
887.090	233.830
887.218	243.745
887.346	255.553
887.474	265.340
887.602	247.064
887.730	242.745
887.858	261.404
887.987	232.426
888.115	270.979
888.243	242.596
888.371	237.021
888.499	228.830
888.627	248.426
888.755	244.681
888.883	234.553
889.012	233.383
889.140	234.766
889.268	253.085
889.396	249.064
889.524	238.936
889.652	224.957
889.780	220.745
889.908	267.043
890.037	226.851
890.165	231.851
890.293	260.255
890.421	283.638
890.549	247.809
890.677	244.596
890.805	228.936
890.933	259.574
891.062	238.872
891.190	232.255
891.318	251.702
891.446	245.468
891.574	227.362
891.702	239.809
891.830	234.723
891.958	265.511
892.087	275.277
892.215	244.021
892.343	240.383
892.471	249.617
892.599	236.383
892.727	261.021
892.855	235.085
892.983	221.617
893.112	236.511
893.240	228.085
893.368	264.426
893.496	240.489
893.624	242.511
893.752	297.404
893.880	273.702
894.008	217.617
894.137	246.681
894.265	241.043
894.393	239.553
894.521	234.830
894.649	253.830
894.777	240.787
894.905	221.128
895.033	269.489
895.162	226.766
895.290	271.298
895.418	249.851
895.546	246.404
895.674	310.809
895.802	232.489
895.930	250.426
896.058	214.064
896.187	227.574
896.315	225.872
896.443	223.745
896.571	233.766
896.699	233.851
896.827	246.766
896.955	244.085
897.083	232.191
897.212	269.681
897.340	232.681
897.468	218.319
897.596	224.149
897.724	274.000
897.852	240.170
897.980	232.277
898.108	243.149
898.237	229.809
898.365	220.915
898.493	240.383
898.621	239.043
898.749	231.809
898.877	238.957
899.005	214.830
899.133	232.745
899.262	243.596
899.390	266.574
899.518	240.383
899.646	234.085
899.774	264.489
899.902	309.617
900.030	247.596
900.158	235.830
900.287	250.809
900.415	212.660
900.543	245.489
900.671	232.426
900.799	260.021
900.927	228.000
901.055	224.532
901.183	237.234
901.312	255.191
901.440	245.787
901.568	243.915
901.696	235.660
901.824	243.426
901.952	243.085
902.080	348.660
902.208	263.979
902.337	231.489
902.465	241.191
902.593	238.745
902.721	231.511
902.849	240.723
902.977	246.298
903.105	234.936
903.233	246.957
903.362	236.149
903.490	242.660
903.618	229.149
903.746	247.766
903.874	223.638
904.002	242.511
904.130	240.128
904.258	253.000
904.387	233.723
904.515	253.277
904.643	218.617
904.771	228.213
904.899	249.213
905.027	256.532
905.155	244.681
905.283	236.234
905.412	257.149
905.540	237.404
905.668	236.553
905.796	233.787
905.924	233.872
906.052	240.915
906.180	255.404
906.308	242.532
906.437	267.596
906.565	236.064
906.693	240.723
906.821	221.149
906.949	232.532
907.077	252.064
907.205	241.723
907.333	241.809
907.462	228.128
907.590	231.234
907.718	256.468
907.846	274.021
907.974	227.979
908.102	234.532
908.230	266.894
908.358	280.979
908.487	241.766
908.615	239.894
908.743	247.830
908.871	301.319
908.999	241.362
909.127	271.383
909.255	228.234
909.383	231.830
909.512	274.553
909.640	242.809
909.768	243.426
909.896	286.681
910.024	265.298
910.152	247.383
910.280	281.723
910.408	245.298
910.537	236.128
910.665	269.191
910.793	249.915
910.921	257.340
911.049	234.489
911.177	226.489
911.305	259.936
911.433	249.660
911.562	243.787
911.690	244.128
911.818	290.362
911.946	243.894
912.074	259.319
912.202	281.745
912.330	246.851
912.458	244.915
912.587	265.043
912.715	266.043
912.843	271.043
912.971	260.149
913.099	277.787
913.227	266.830
913.355	249.638
913.483	267.340
913.612	260.383
913.740	386.277
913.868	260.447
