0pol_70_70_at_750.00nm_cut_at_984.50Y_01.dat
24.04.2023
11:00:29
cut middle at Y: 984.50
top cursor: 1008 down cursor: 961 mean of: 47 lines , 2560 datapoints
wavelength(nm)	intensity[arb. units]
585.996	20541.489
586.124	20152.872
586.252	20033.681
586.380	20167.468
586.508	20256.362
586.637	20350.723
586.765	20550.362
586.893	20569.596
587.021	20650.426
587.149	20790.596
587.277	20768.298
587.405	20884.362
587.533	20853.702
587.662	21079.064
587.790	21017.723
587.918	21054.383
588.046	21097.404
588.174	21012.021
588.302	21279.213
588.430	21149.340
588.558	21219.021
588.687	21271.936
588.815	21327.319
588.943	21339.532
589.071	21375.660
589.199	21489.915
589.327	21518.362
589.455	21394.362
589.583	21649.128
589.712	21641.043
589.840	21639.043
589.968	21711.872
590.096	21784.064
590.224	21795.872
590.352	21858.596
590.480	21828.766
590.608	21932.021
590.737	22040.851
590.865	22016.489
590.993	21984.681
591.121	22120.426
591.249	22220.553
591.377	22228.660
591.505	22226.489
591.633	22370.766
591.762	22341.851
591.890	22549.617
592.018	22476.851
592.146	22561.638
592.274	22656.234
592.402	22637.043
592.530	22647.872
592.658	22939.745
592.787	22869.745
592.915	23065.319
593.043	23051.128
593.171	23076.447
593.299	23080.638
593.427	23188.213
593.555	23346.617
593.683	23406.617
593.812	23498.979
593.940	23530.170
594.068	23600.787
594.196	23763.319
594.324	23846.723
594.452	23832.809
594.580	23936.489
594.708	23981.745
594.837	24015.660
594.965	24175.702
595.093	24327.298
595.221	24258.574
595.349	24467.064
595.477	24518.787
595.605	24552.064
595.733	24517.170
595.862	24802.064
595.990	24691.426
596.118	24742.830
596.246	25015.915
596.374	24909.064
596.502	24965.191
596.630	24985.106
596.758	25144.362
596.887	25031.936
597.015	25123.766
597.143	25174.872
597.271	25205.064
597.399	25249.489
597.527	25210.702
597.655	25339.723
597.783	25226.383
597.912	25222.787
598.040	25322.064
598.168	25410.681
598.296	25403.936
598.424	25394.681
598.552	25368.468
598.680	25400.596
598.808	25552.383
598.937	25489.979
599.065	25447.000
599.193	25525.787
599.321	25510.851
599.449	25538.957
599.577	25546.936
599.705	25604.468
599.833	25595.894
599.962	25606.468
600.090	25673.915
600.218	25819.106
600.346	25890.213
600.474	25913.489
600.602	25889.128
600.730	26011.851
600.858	26020.957
600.987	26168.723
601.115	26150.255
601.243	26264.915
601.371	26226.043
601.499	26358.660
601.627	26505.766
601.755	26525.936
601.883	26638.830
602.012	26755.872
602.140	26777.851
602.268	26914.064
602.396	27010.021
602.524	27149.128
602.652	27125.404
602.780	27265.128
602.908	27386.404
603.037	27428.617
603.165	27481.957
603.293	27606.191
603.421	27697.000
603.549	27754.489
603.677	27907.894
603.805	28007.213
603.933	28057.404
604.062	28269.021
604.190	28245.064
604.318	28347.085
604.446	28363.277
604.574	28456.553
604.702	28616.426
604.830	28671.021
604.958	28732.000
605.087	28807.702
605.215	28895.213
605.343	28894.298
605.471	28988.340
605.599	29060.511
605.727	29042.596
605.855	29108.170
605.983	29165.021
606.112	29211.745
606.240	29194.957
606.368	29239.043
606.496	29514.149
606.624	29282.128
606.752	29334.830
606.880	29471.468
607.008	29602.043
607.137	29476.915
607.265	29408.979
607.393	29467.149
607.521	29529.681
607.649	29494.340
607.777	29438.234
607.905	29465.723
608.033	29420.149
608.162	29400.915
608.290	29485.340
608.418	29325.447
608.546	29472.000
608.674	29365.106
608.802	29480.404
608.930	29329.213
609.058	29388.021
609.187	29418.319
609.315	29413.468
609.443	29408.319
609.571	29352.511
609.699	29331.298
609.827	29399.915
609.955	29317.426
610.083	29294.532
610.212	29283.702
610.340	29224.638
610.468	29341.170
610.596	29281.851
610.724	29310.319
610.852	29264.064
610.980	29297.340
611.108	29353.787
611.237	29193.787
611.365	29291.489
611.493	29273.170
611.621	29373.447
611.749	29302.723
611.877	29308.426
612.005	29315.851
612.133	29452.106
612.262	29513.809
612.390	29468.340
612.518	29501.191
612.646	29550.021
612.774	29514.596
612.902	29603.319
613.030	29706.426
613.158	29790.000
613.287	29641.915
613.415	29720.064
613.543	29627.404
613.671	29681.553
613.799	29764.809
613.927	29558.489
614.055	29667.915
614.183	29827.298
614.312	29791.745
614.440	29922.617
614.568	29752.596
614.696	29888.213
614.824	30004.043
614.952	29938.574
615.080	29918.787
615.208	29972.511
615.337	29981.234
615.465	30024.830
615.593	30134.660
615.721	30306.702
615.849	30303.000
615.977	30334.362
616.105	30336.213
616.233	30261.851
616.362	30295.383
616.490	30305.809
616.618	30413.957
616.746	30440.660
616.874	30395.340
617.002	30338.362
617.130	30407.787
617.258	30480.340
617.387	30524.702
617.515	30443.894
617.643	30488.574
617.771	30412.085
617.899	30415.426
618.027	30351.957
618.155	30463.936
618.283	30339.383
618.412	30379.277
618.540	30337.851
618.668	30230.638
618.796	30327.574
618.924	30439.404
619.052	30301.723
619.180	30290.468
619.308	30304.149
619.437	30287.340
619.565	30220.660
619.693	30196.447
619.821	30059.830
619.949	30075.723
620.077	30211.043
620.205	30098.234
620.333	30120.255
620.462	30072.809
620.590	30038.596
620.718	29947.170
620.846	29954.574
620.974	29859.255
621.102	29829.489
621.230	29734.255
621.358	29939.936
621.487	29777.830
621.615	29678.766
621.743	29745.000
621.871	29623.255
621.999	29676.511
622.127	29552.106
622.255	29571.404
622.383	29445.085
622.512	29454.468
622.640	29509.511
622.768	29337.191
622.896	29301.362
623.024	29270.021
623.152	29293.043
623.280	29240.596
623.408	29128.128
623.537	29110.319
623.665	29050.149
623.793	28981.277
623.921	28935.574
624.049	28851.979
624.177	28854.787
624.305	28739.511
624.433	28735.511
624.562	28794.447
624.690	28669.128
624.818	28680.681
624.946	28789.064
625.074	28585.894
625.202	28479.894
625.330	28404.936
625.458	28376.447
625.587	28354.000
625.715	28297.915
625.843	28360.851
625.971	28320.043
626.099	28181.404
626.227	28199.085
626.355	28062.000
626.483	28134.596
626.612	27971.915
626.740	27944.872
626.868	27980.681
626.996	27885.362
627.124	27905.957
627.252	27845.191
627.380	27879.383
627.508	27851.830
627.637	27720.787
627.765	27702.362
627.893	27783.085
628.021	27778.447
628.149	27933.383
628.277	28007.064
628.405	27945.000
628.533	27579.851
628.662	27654.681
628.790	27570.021
628.918	27503.915
629.046	27547.809
629.174	27606.681
629.302	27792.638
629.430	27616.191
629.558	27485.426
629.687	27353.638
629.815	27371.851
629.943	27413.404
630.071	27355.787
630.199	27380.043
630.327	27306.894
630.455	27352.340
630.583	27290.128
630.712	27161.532
630.840	27275.532
630.968	27223.979
631.096	27144.532
631.224	27105.638
631.352	27077.340
631.480	27009.532
631.608	27050.915
631.737	27078.170
631.865	27051.298
631.993	26886.872
632.121	26996.085
632.249	26862.617
632.377	26726.043
632.505	26754.362
632.633	26561.723
632.762	26554.064
632.890	26576.340
633.018	26397.213
633.146	26543.319
633.274	26268.894
633.402	26245.170
633.530	26158.489
633.658	26218.596
633.787	25951.617
633.915	25922.362
634.043	25900.617
634.171	25832.043
634.299	25734.617
634.427	25707.936
634.555	25605.447
634.683	25470.191
634.812	25372.681
634.940	25276.000
635.068	25236.128
635.196	25173.128
635.324	25020.447
635.452	25042.383
635.580	24933.511
635.708	24787.255
635.837	24721.936
635.965	24568.043
636.093	24502.128
636.221	24420.723
636.349	24434.426
636.477	24268.340
636.605	24297.021
636.733	23997.128
636.862	23984.340
636.990	23897.574
637.118	23831.447
637.246	23703.702
637.374	23605.319
637.502	23610.021
637.630	23422.213
637.758	23392.085
637.887	23283.085
638.015	23237.362
638.143	23126.191
638.271	22964.255
638.399	22960.766
638.527	22923.809
638.655	22813.021
638.783	22913.447
638.912	22690.213
639.040	22656.681
639.168	22580.191
639.296	22507.255
639.424	22554.340
639.552	22343.872
639.680	22459.191
639.808	22295.191
639.937	22216.426
640.065	22131.979
640.193	22122.617
640.321	22050.681
640.449	21972.574
640.577	21980.277
640.705	21856.957
640.833	21864.766
640.962	21729.085
641.090	21716.213
641.218	21677.851
641.346	21623.532
641.474	21637.894
641.602	21559.340
641.730	21532.021
641.858	21476.468
641.987	21428.787
642.115	21394.872
642.243	21407.064
642.371	21325.085
642.499	21229.830
642.627	21327.957
642.755	21275.936
642.883	21242.936
643.012	21149.809
643.140	21049.064
643.268	21046.234
643.396	21057.809
643.524	21081.340
643.652	20964.681
643.780	20885.319
643.908	20852.234
644.037	20878.745
644.165	20761.660
644.293	20667.191
644.421	20632.404
644.549	20611.894
644.677	20580.447
644.805	20530.383
644.933	20366.298
645.062	20363.702
645.190	20300.000
645.318	20320.000
645.446	20134.702
645.574	20068.106
645.702	20034.128
645.830	20140.723
645.958	20014.043
646.087	20061.404
646.215	19804.957
646.343	19937.894
646.471	19723.723
646.599	19729.723
646.727	19558.574
646.855	19491.021
646.983	19550.404
647.112	19354.489
647.240	19437.362
647.368	19246.830
647.496	19218.149
647.624	19087.702
647.752	19029.702
647.880	18977.000
648.008	18885.851
648.137	18810.468
648.265	18743.128
648.393	18716.255
648.521	18667.468
648.649	18545.681
648.777	18469.957
648.905	18353.936
649.033	18307.745
649.162	18178.255
649.290	18184.085
649.418	18051.213
649.546	18012.957
649.674	17946.043
649.802	17798.319
649.930	17973.489
650.058	17773.085
650.187	17684.128
650.315	17594.085
650.443	17535.064
650.571	17459.234
650.699	17417.723
650.827	17359.532
650.955	17271.574
651.083	17172.702
651.212	17203.681
651.340	17096.213
651.468	17020.213
651.596	16871.447
651.724	16870.043
651.852	16856.149
651.980	16726.404
652.108	16745.468
652.237	16635.617
652.365	16678.979
652.493	16547.170
652.621	16438.915
652.749	16462.404
652.877	16314.681
653.005	16295.894
653.133	16198.468
653.262	16164.191
653.390	16164.489
653.518	16116.404
653.646	15992.681
653.774	16101.106
653.902	15837.617
654.030	15794.404
654.158	15739.660
654.287	15696.468
654.415	15553.234
654.543	15614.106
654.671	15523.404
654.799	15508.149
654.927	15436.404
655.055	15397.830
655.183	15293.489
655.312	15257.872
655.440	15259.255
655.568	15147.787
655.696	15136.574
655.824	15177.809
655.952	14990.191
656.080	14924.298
656.208	14955.702
656.337	14816.128
656.465	14767.681
656.593	14758.149
656.721	14585.426
656.849	14605.553
656.977	14466.298
657.105	14403.787
657.233	14334.426
657.362	14286.404
657.490	14194.000
657.618	14227.915
657.746	14095.745
657.874	14018.234
658.002	14032.574
658.130	13919.766
658.258	13845.383
658.387	13858.426
658.515	13760.702
658.643	13706.660
658.771	13675.447
658.899	13656.532
659.027	13553.660
659.155	13554.702
659.283	13653.170
659.412	13376.064
659.540	13455.043
659.668	13301.660
659.796	13284.383
659.924	13199.638
660.052	13157.894
660.180	13094.234
660.308	13066.617
660.437	12986.638
660.565	12920.957
660.693	12867.979
660.821	12841.894
660.949	12751.340
661.077	12720.149
661.205	12667.787
661.333	12608.000
661.462	12676.447
661.590	12560.340
661.718	12689.298
661.846	12518.319
661.974	12575.957
662.102	12359.979
662.230	12429.809
662.358	12281.170
662.487	12287.532
662.615	12261.511
662.743	12215.298
662.871	12192.596
662.999	12162.617
663.127	12037.468
663.255	12158.064
663.383	12055.979
663.512	11940.383
663.640	11972.851
663.768	11921.021
663.896	11909.723
664.024	11879.106
664.152	11792.191
664.280	11887.979
664.408	11784.404
664.537	11815.489
664.665	11726.255
664.793	11595.766
664.921	11612.660
665.049	11602.170
665.177	11577.277
665.305	11504.000
665.433	11508.979
665.562	11485.787
665.690	11400.574
665.818	11544.702
665.946	11328.021
666.074	11262.766
666.202	11256.872
666.330	11270.660
666.458	11206.872
666.587	11165.383
666.715	11127.149
666.843	11136.255
666.971	11060.255
667.099	11086.702
667.227	11010.362
667.355	11005.979
667.483	10947.021
667.612	10932.702
667.740	10913.596
667.868	10931.447
667.996	10856.809
668.124	10778.000
668.252	10731.383
668.380	10748.128
668.508	10704.000
668.637	10698.723
668.765	10629.915
668.893	10597.766
669.021	10555.830
669.149	10538.617
669.277	10571.064
669.405	10457.255
669.533	10425.787
669.662	10637.340
669.790	10398.660
669.918	10355.255
670.046	10283.766
670.174	10315.043
670.302	10235.319
670.430	10195.596
670.558	10214.298
670.687	10098.915
670.815	10225.511
670.943	10032.681
671.071	10020.681
671.199	10016.809
671.327	9919.340
671.455	9872.468
671.583	9875.489
671.712	9932.362
671.840	9809.191
671.968	9710.468
672.096	9616.064
672.224	9616.319
672.352	9725.957
672.480	9520.234
672.608	9423.830
672.737	9446.787
672.865	9522.660
672.993	9337.404
673.121	9238.489
673.249	9255.596
673.377	9246.234
673.505	9147.298
673.633	9108.213
673.762	9052.128
673.890	8994.553
674.018	9228.787
674.146	8963.426
674.274	8904.000
674.402	9055.660
674.530	8818.234
674.658	8799.426
674.787	8762.149
674.915	8664.851
675.043	8705.340
675.171	8595.851
675.299	8541.660
675.427	8561.213
675.555	8434.447
675.683	8413.149
675.812	8370.362
675.940	8375.979
676.068	8314.277
676.196	8217.702
676.324	8266.000
676.452	8191.894
676.580	8120.723
676.708	8102.128
676.837	8102.681
676.965	8013.957
677.093	7955.213
677.221	7912.660
677.349	7911.723
677.477	7944.404
677.605	7810.766
677.733	7839.383
677.862	7716.277
677.990	7684.404
678.118	7623.957
678.246	7626.660
678.374	7681.213
678.502	7526.468
678.630	7494.702
678.758	7476.340
678.887	7456.383
679.015	7429.191
679.143	7397.213
679.271	7365.809
679.399	7375.191
679.527	7294.191
679.655	7223.255
679.783	7239.894
679.912	7281.979
680.040	7226.957
680.168	7167.915
680.296	7155.426
680.424	7067.191
680.552	7108.532
680.680	7131.532
680.808	7032.766
680.937	6975.979
681.065	6965.553
681.193	6957.745
681.321	6964.936
681.449	6875.404
681.577	6944.234
681.705	6900.319
681.833	6815.851
681.962	6766.234
682.090	6942.766
682.218	6743.809
682.346	6731.426
682.474	6733.511
682.602	6664.447
682.730	6702.915
682.858	6633.191
682.987	6645.830
683.115	6597.809
683.243	6544.298
683.371	6540.660
683.499	6554.383
683.627	6530.234
683.755	6540.383
683.883	6593.298
684.012	6426.957
684.140	6380.979
684.268	6399.830
684.396	6354.894
684.524	6412.021
684.652	6400.255
684.780	6358.383
684.908	6321.617
685.037	6261.532
685.165	6220.000
685.293	6176.489
685.421	6286.660
685.549	6114.426
685.677	6120.255
685.805	6267.830
685.933	6133.809
686.062	6009.447
686.190	6024.872
686.318	6059.170
686.446	6029.851
686.574	5947.383
686.702	6039.723
686.830	5922.660
686.958	5901.319
687.087	5886.787
687.215	5889.596
687.343	5831.511
687.471	5824.000
687.599	5768.277
687.727	5928.702
687.855	5753.149
687.983	5794.766
688.112	5866.085
688.240	5669.404
688.368	5625.340
688.496	5657.553
688.624	5676.532
688.752	5528.106
688.880	5587.064
689.008	5549.234
689.137	5537.745
689.265	5456.745
689.393	5466.170
689.521	5396.617
689.649	5407.426
689.777	5407.894
689.905	5357.298
690.033	5361.000
690.162	5294.702
690.290	5281.468
690.418	5285.213
690.546	5378.553
690.674	5319.426
690.802	5187.128
690.930	5203.085
691.058	5207.638
691.187	5142.936
691.315	5081.362
691.443	5155.532
691.571	5077.128
691.699	5077.915
691.827	5080.596
691.955	4999.915
692.083	4978.638
692.212	5091.000
692.340	4944.957
692.468	4963.787
692.596	4942.213
692.724	5014.319
692.852	4859.191
692.980	4937.191
693.108	4830.021
693.237	4793.106
693.365	4758.702
693.493	4745.532
693.621	4684.957
693.749	4687.404
693.877	4637.723
694.005	4759.681
694.133	4633.383
694.262	4631.021
694.390	4550.574
694.518	4573.213
694.646	4555.447
694.774	4566.830
694.902	4644.404
695.030	4551.681
695.158	4460.511
695.287	4437.106
695.415	4402.149
695.543	4430.000
695.671	4484.532
695.799	4421.723
695.927	4397.362
696.055	4325.447
696.183	4332.149
696.312	4311.553
696.440	4451.660
696.568	4360.936
696.696	4324.915
696.824	4204.894
696.952	4216.957
697.080	4243.979
697.208	4149.766
697.337	4208.170
697.465	4161.702
697.593	4097.617
697.721	4123.660
697.849	4100.383
697.977	4094.426
698.105	4105.745
698.233	4032.574
698.362	4007.532
698.490	4004.128
698.618	3987.745
698.746	4087.340
698.874	3997.660
699.002	4164.915
699.130	3933.766
699.258	3933.915
699.387	3846.660
699.515	3871.617
699.643	3861.596
699.771	3906.191
699.899	3812.957
700.027	3874.936
700.155	3780.255
700.283	3770.979
700.412	3807.915
700.540	3752.915
700.668	3774.234
700.796	3673.851
700.924	3694.000
701.052	3687.149
701.180	3762.106
701.308	3655.532
701.437	3571.319
701.565	3578.043
701.693	3511.149
701.821	3568.511
701.949	3525.085
702.077	3545.787
702.205	3479.404
702.333	3493.255
702.462	3451.404
702.590	3435.574
702.718	3408.234
702.846	3402.553
702.974	3368.851
703.102	3373.532
703.230	3427.213
703.358	3372.447
703.487	3292.851
703.615	3480.511
703.743	3278.468
703.871	3228.787
703.999	3298.894
704.127	3333.043
704.255	3160.596
704.383	3332.000
704.512	3143.489
704.640	3161.745
704.768	3097.787
704.896	3169.532
705.024	3069.170
705.152	3174.043
705.280	3081.681
705.408	3019.638
705.537	3018.426
705.665	2960.979
705.793	2959.255
705.921	2923.809
706.049	2930.234
706.177	2905.532
706.305	2909.745
706.433	3001.745
706.562	2881.447
706.690	2826.277
706.818	2794.383
706.946	3042.340
707.074	2823.596
707.202	2756.723
707.330	2864.277
707.458	2749.745
707.587	2709.851
707.715	2713.000
707.843	2775.574
707.971	2730.979
708.099	2751.447
708.227	2669.021
708.355	2659.064
708.483	2618.532
708.612	2598.234
708.740	2660.681
708.868	2704.064
708.996	2628.000
709.124	2646.872
709.252	2603.000
709.380	2553.021
709.508	2591.532
709.637	2541.830
709.765	2527.298
709.893	2574.915
710.021	2583.702
710.149	2509.234
710.277	2556.043
710.405	2516.851
710.533	2519.213
710.662	2501.766
710.790	2535.106
710.918	2535.936
711.046	2534.596
711.174	2514.128
711.302	2477.277
711.430	2530.596
711.558	2490.277
711.687	2481.766
711.815	2485.000
711.943	2466.532
712.071	2495.298
712.199	2465.298
712.327	2456.553
712.455	2428.128
712.583	2444.191
712.712	2441.404
712.840	2434.021
712.968	2409.128
713.096	2396.532
713.224	2397.149
713.352	2400.574
713.480	2357.000
713.608	2380.426
713.737	2338.149
713.865	2358.936
713.993	2346.915
714.121	2330.915
714.249	2348.787
714.377	2324.851
714.505	2344.638
714.633	2303.277
714.762	2277.298
714.890	2286.085
715.018	2303.851
715.146	2286.638
715.274	2261.787
715.402	2237.489
715.530	2249.298
715.658	2238.191
715.787	2228.851
715.915	2237.319
716.043	2195.681
716.171	2226.489
716.299	2216.936
716.427	2201.404
716.555	2226.872
716.683	2166.596
716.812	2167.957
716.940	2167.702
717.068	2136.872
717.196	2123.106
717.324	2150.426
717.452	2137.638
717.580	2109.894
717.708	2095.426
717.837	2135.766
717.965	2086.106
718.093	2055.085
718.221	2030.872
718.349	2056.638
718.477	2045.213
718.605	2035.830
718.733	2031.000
718.862	2017.787
718.990	1990.638
719.118	2029.021
719.246	1988.681
719.374	1995.660
719.502	2020.766
719.630	2045.149
719.758	1954.574
719.887	1933.745
720.015	1944.681
720.143	1914.787
720.271	1907.872
720.399	1951.362
720.527	1914.787
720.655	1901.234
720.783	1883.021
720.912	1854.468
721.040	1926.894
721.168	1861.553
721.296	1886.936
721.424	1847.638
721.552	1839.851
721.680	1808.787
721.808	1844.660
721.937	1824.596
722.065	1799.149
722.193	1776.468
722.321	1809.149
722.449	1784.468
722.577	1769.851
722.705	1754.723
722.833	1759.936
722.962	1775.851
723.090	1719.404
723.218	1717.106
723.346	1720.362
723.474	1723.596
723.602	1761.872
723.730	1726.532
723.858	1724.128
723.987	1704.426
724.115	1648.894
724.243	1664.830
724.371	1647.277
724.499	1675.894
724.627	1629.787
724.755	1645.383
724.883	1643.638
725.012	1596.745
725.140	1607.277
725.268	1587.000
725.396	1607.957
725.524	1575.809
725.652	1578.404
725.780	1552.426
725.908	1558.447
726.037	1560.170
726.165	1540.596
726.293	1503.340
726.421	1524.149
726.549	1527.213
726.677	1509.681
726.805	1488.596
726.933	1517.340
727.062	1474.617
727.190	1483.128
727.318	1469.660
727.446	1465.745
727.574	1461.851
727.702	1474.787
727.830	1447.362
727.958	1476.426
728.087	1476.723
728.215	1450.511
728.343	1432.489
728.471	1423.468
728.599	1425.021
728.727	1416.638
728.855	1405.851
728.983	1409.064
729.112	1401.809
729.240	1391.957
729.368	1373.723
729.496	1377.234
729.624	1371.085
729.752	1368.277
729.880	1389.936
730.008	1378.468
730.137	1397.298
730.265	1382.319
730.393	1345.894
730.521	1352.000
730.649	1338.213
730.777	1368.085
730.905	1303.191
731.033	1328.617
731.162	1386.000
731.290	1414.596
731.418	1372.851
731.546	1416.766
731.674	1285.277
731.802	1304.277
731.930	1290.936
732.058	1268.426
732.187	1291.170
732.315	1242.872
732.443	1265.170
732.571	1260.979
732.699	1253.574
732.827	1275.617
732.955	1244.787
733.083	1234.234
733.212	1247.234
733.340	1219.468
733.468	1227.745
733.596	1212.149
733.724	1193.170
733.852	1228.766
733.980	1230.362
734.108	1223.787
734.237	1241.447
734.365	1190.234
734.493	1233.617
734.621	1189.872
734.749	1207.021
734.877	1188.447
735.005	1182.979
735.133	1161.787
735.262	1175.745
735.390	1152.447
735.518	1175.830
735.646	1140.426
735.774	1159.660
735.902	1172.915
736.030	1149.702
736.158	1201.447
736.287	1114.277
736.415	1157.362
736.543	1110.234
736.671	1103.404
736.799	1116.191
736.927	1193.872
737.055	1118.596
737.183	1098.915
737.312	1107.362
737.440	1143.894
737.568	1167.787
737.696	1102.213
737.824	1141.915
737.952	1080.766
738.080	1061.702
738.208	1124.043
738.337	1081.596
738.465	1152.319
738.593	1058.468
738.721	1047.489
738.849	1047.872
738.977	1071.660
739.105	1047.043
739.233	1063.489
739.362	1057.255
739.490	1007.340
739.618	1007.787
739.746	1029.255
739.874	1017.617
740.002	990.553
740.130	1000.596
740.258	995.298
740.387	999.234
740.515	994.830
740.643	976.191
740.771	1034.468
740.899	986.021
741.027	975.638
741.155	1011.809
741.283	963.809
741.412	968.957
741.540	966.723
741.668	947.191
741.796	954.894
741.924	999.000
742.052	946.319
742.180	941.340
742.308	953.426
742.437	939.894
742.565	967.787
742.693	962.723
742.821	925.277
742.949	976.426
743.077	939.128
743.205	926.915
743.333	938.362
743.462	949.468
743.590	945.128
743.718	906.936
743.846	920.149
743.974	930.277
744.102	905.979
744.230	937.043
744.358	887.553
744.487	890.979
744.615	919.745
744.743	883.681
744.871	867.128
744.999	931.468
745.127	866.936
745.255	863.234
745.383	915.574
745.512	864.404
745.640	847.106
745.768	875.681
745.896	864.681
746.024	871.894
746.152	832.809
746.280	836.596
746.408	839.298
746.537	837.064
746.665	852.702
746.793	844.362
746.921	812.830
747.049	836.489
747.177	851.383
747.305	864.723
747.433	881.553
747.562	804.319
747.690	803.149
747.818	822.532
747.946	803.574
748.074	918.574
748.202	840.426
748.330	807.872
748.458	824.638
748.587	788.702
748.715	779.979
748.843	796.319
748.971	783.170
749.099	790.660
749.227	808.255
749.355	774.234
749.483	763.809
749.612	773.681
749.740	756.234
749.868	761.723
749.996	758.723
750.124	750.745
750.252	755.000
750.380	769.021
750.508	735.830
750.637	725.830
750.765	771.021
750.893	731.128
751.021	760.277
751.149	761.362
751.277	769.894
751.405	789.532
751.533	800.745
751.662	713.489
751.790	754.872
751.918	717.447
752.046	729.617
752.174	716.830
752.302	771.617
752.430	714.617
752.558	706.000
752.687	712.043
752.815	708.170
752.943	692.447
753.071	692.404
753.199	693.404
753.327	747.277
753.455	711.702
753.583	670.936
753.712	691.000
753.840	671.574
753.968	683.255
754.096	688.383
754.224	667.511
754.352	669.468
754.480	673.681
754.608	674.936
754.737	668.489
754.865	706.383
754.993	675.489
755.121	653.787
755.249	721.489
755.377	680.702
755.505	660.489
755.633	692.809
755.762	649.723
755.890	727.617
756.018	705.426
756.146	646.298
756.274	643.681
756.402	648.894
756.530	661.553
756.658	664.766
756.787	659.723
756.915	603.340
757.043	657.809
757.171	648.106
757.299	628.468
757.427	620.979
757.555	628.234
757.683	669.234
757.812	598.915
757.940	634.745
758.068	605.511
758.196	603.809
758.324	597.064
758.452	706.085
758.580	606.170
758.708	612.447
758.837	594.383
758.965	700.149
759.093	597.915
759.221	585.660
759.349	599.106
759.477	578.426
759.605	578.191
759.733	571.000
759.862	585.660
759.990	574.213
760.118	574.915
760.246	560.872
760.374	585.277
760.502	590.830
760.630	569.319
760.758	571.809
760.887	549.702
761.015	564.723
761.143	546.979
761.271	559.617
761.399	533.574
761.527	544.298
761.655	547.277
761.783	541.957
761.912	532.745
762.040	523.511
762.168	568.851
762.296	547.191
762.424	533.872
762.552	539.596
762.680	606.426
762.808	510.745
762.937	527.957
763.065	571.787
763.193	578.532
763.321	533.723
763.449	509.362
763.577	521.468
763.705	528.766
763.833	591.532
763.962	522.915
764.090	509.894
764.218	537.574
764.346	515.149
764.474	494.872
764.602	502.021
764.730	503.255
764.858	531.000
764.987	512.489
765.115	548.766
765.243	501.468
765.371	491.553
765.499	470.766
765.627	494.660
765.755	482.957
765.883	500.043
766.012	490.234
766.140	483.638
766.268	477.255
766.396	472.447
766.524	473.447
766.652	471.000
766.780	465.511
766.908	490.532
767.037	480.128
767.165	485.404
767.293	530.489
767.421	473.404
767.549	474.915
767.677	471.404
767.805	462.319
767.933	474.532
768.062	480.745
768.190	460.723
768.318	446.298
768.446	469.915
768.574	496.957
768.702	481.000
768.830	451.638
768.958	451.298
769.087	436.553
769.215	455.043
769.343	447.170
769.471	427.447
769.599	481.255
769.727	465.957
769.855	445.170
769.983	448.447
770.112	426.553
770.240	431.277
770.368	432.319
770.496	426.362
770.624	427.979
770.752	450.213
770.880	475.809
771.008	433.213
771.137	429.957
771.265	458.489
771.393	434.213
771.521	433.617
771.649	416.723
771.777	422.043
771.905	422.064
772.033	429.043
772.162	438.553
772.290	421.468
772.418	473.638
772.546	434.979
772.674	414.681
772.802	427.447
772.930	458.426
773.058	419.638
773.187	427.106
773.315	415.638
773.443	416.128
773.571	413.915
773.699	410.936
773.827	407.936
773.955	439.702
774.083	418.787
774.212	409.809
774.340	434.979
774.468	403.447
774.596	405.021
774.724	410.830
774.852	414.574
774.980	408.894
775.108	400.170
775.237	404.638
775.365	412.936
775.493	405.489
775.621	406.340
775.749	408.383
775.877	390.021
776.005	410.404
776.133	425.383
776.262	412.340
776.390	390.553
776.518	444.213
776.646	395.213
776.774	410.426
776.902	396.638
777.030	396.851
777.158	409.362
777.287	418.702
777.415	381.851
777.543	379.149
777.671	382.447
777.799	380.872
777.927	381.489
778.055	405.128
778.183	377.106
778.312	365.830
778.440	382.128
778.568	389.277
778.696	383.064
778.824	396.766
778.952	395.489
779.080	367.723
779.208	412.660
779.337	398.489
779.465	378.553
779.593	381.936
779.721	395.000
779.849	388.979
779.977	371.766
780.105	366.043
780.233	395.170
780.362	394.489
780.490	411.702
780.618	372.298
780.746	373.915
780.874	361.085
781.002	376.404
781.130	362.191
781.258	351.979
781.387	372.553
781.515	388.723
781.643	364.213
781.771	413.021
781.899	359.319
782.027	413.936
782.155	381.085
782.283	370.489
782.412	363.298
782.540	365.617
782.668	394.191
782.796	343.277
782.924	383.000
783.052	358.170
783.180	393.979
783.308	354.894
783.437	358.383
783.565	362.957
783.693	356.851
783.821	356.979
783.949	351.894
784.077	375.340
784.205	357.170
784.333	406.979
784.462	344.340
784.590	363.553
784.718	366.085
784.846	345.489
784.974	372.617
785.102	400.489
785.230	355.043
785.358	400.936
785.487	352.213
785.615	364.213
785.743	352.149
785.871	351.021
785.999	340.489
786.127	332.128
786.255	356.191
786.383	385.702
786.512	374.255
786.640	353.234
786.768	356.957
786.896	334.170
787.024	339.745
787.152	340.064
787.280	347.000
787.408	330.511
787.537	358.277
787.665	343.234
787.793	371.979
787.921	351.787
788.049	351.681
788.177	334.064
788.305	330.872
788.433	371.574
788.562	329.723
788.690	341.383
788.818	330.681
788.946	347.064
789.074	323.213
789.202	350.660
789.330	339.426
789.458	329.149
789.587	390.255
789.715	335.489
789.843	335.085
789.971	333.617
790.099	330.213
790.227	343.106
790.355	320.723
790.483	362.447
790.612	333.553
790.740	339.277
790.868	344.596
790.996	340.277
791.124	334.553
791.252	334.255
791.380	344.915
791.508	336.617
791.637	329.702
791.765	318.383
791.893	323.660
792.021	324.936
792.149	335.255
792.277	333.851
792.405	316.574
792.533	338.596
792.662	304.149
792.790	318.085
792.918	341.809
793.046	321.489
793.174	336.681
793.302	330.681
793.430	325.638
793.558	309.872
793.687	318.766
793.815	319.170
793.943	335.957
794.071	342.638
794.199	321.809
794.327	325.723
794.455	395.553
794.583	411.617
794.712	311.298
794.840	326.085
794.968	320.149
795.096	345.617
795.224	308.170
795.352	305.936
795.480	349.106
795.608	323.277
795.737	322.596
795.865	315.234
795.993	312.489
796.121	298.979
796.249	310.596
796.377	329.830
796.505	311.426
796.633	304.596
796.762	307.745
796.890	324.255
797.018	328.383
797.146	304.000
797.274	292.447
797.402	309.723
797.530	318.745
797.658	301.511
797.787	346.915
797.915	304.511
798.043	323.447
798.171	296.787
798.299	309.787
798.427	292.787
798.555	307.085
798.683	284.574
798.812	311.213
798.940	369.660
799.068	302.085
799.196	341.681
799.324	295.617
799.452	305.191
799.580	293.234
799.708	350.660
799.837	290.915
799.965	293.043
800.093	321.191
800.221	267.872
800.349	297.851
800.477	293.681
800.605	301.574
800.733	311.617
800.862	301.362
800.990	339.170
801.118	287.489
801.246	278.191
801.374	306.149
801.502	297.277
801.630	277.468
801.758	301.064
801.887	324.787
802.015	281.851
802.143	285.021
802.271	307.043
802.399	294.447
802.527	276.489
802.655	320.702
802.783	336.723
802.912	298.660
803.040	289.149
803.168	279.766
803.296	278.660
803.424	292.532
803.552	286.149
803.680	286.851
803.808	294.043
803.937	283.085
804.065	276.511
804.193	282.128
804.321	331.213
804.449	265.383
804.577	279.064
804.705	285.745
804.833	311.915
804.962	265.404
805.090	284.574
805.218	295.936
805.346	289.660
805.474	300.021
805.602	305.106
805.730	277.660
805.858	267.340
805.987	288.149
806.115	280.745
806.243	285.745
806.371	315.979
806.499	386.426
806.627	415.745
806.755	384.021
806.883	293.106
807.012	277.085
807.140	304.213
807.268	290.362
807.396	300.064
807.524	265.830
807.652	269.319
807.780	338.255
807.908	273.745
808.037	318.979
808.165	302.234
808.293	281.383
808.421	323.191
808.549	269.149
808.677	276.319
808.805	318.468
808.933	276.340
809.062	288.702
809.190	328.340
809.318	279.617
809.446	281.000
809.574	332.000
809.702	261.362
809.830	287.723
809.958	287.660
810.087	272.617
810.215	293.383
810.343	285.872
810.471	286.085
810.599	271.553
810.727	270.915
810.855	260.872
810.983	261.489
811.112	284.021
811.240	269.745
811.368	286.319
811.496	308.362
811.624	281.489
811.752	265.064
811.880	279.489
812.008	260.766
812.137	283.872
812.265	249.894
812.393	285.064
812.521	294.745
812.649	271.872
812.777	264.468
812.905	303.213
813.033	251.319
813.162	256.085
813.290	263.638
813.418	281.319
813.546	261.936
813.674	263.255
813.802	271.809
813.930	254.298
814.058	255.936
814.187	270.085
814.315	260.298
814.443	271.191
814.571	280.170
814.699	287.872
814.827	265.851
814.955	258.745
815.083	288.043
815.212	287.000
815.340	296.702
815.468	254.787
815.596	270.234
815.724	276.021
815.852	260.872
815.980	251.043
816.108	259.660
816.237	252.979
816.365	271.830
816.493	273.191
816.621	260.277
816.749	266.021
816.877	277.723
817.005	285.234
817.133	271.979
817.262	248.106
817.390	263.021
817.518	259.340
817.646	269.553
817.774	255.745
817.902	253.234
818.030	249.106
818.158	295.489
818.287	272.340
818.415	252.021
818.543	259.213
818.671	281.681
818.799	253.617
818.927	268.830
819.055	272.064
819.183	258.255
819.312	262.340
819.440	249.787
819.568	250.532
819.696	257.064
819.824	267.106
819.952	253.574
820.080	261.766
820.208	252.404
820.337	247.021
820.465	286.872
820.593	255.255
820.721	263.085
820.849	260.872
820.977	261.447
821.105	268.894
821.233	233.915
821.362	276.000
821.490	244.872
821.618	251.404
821.746	244.723
821.874	260.681
822.002	253.021
822.130	250.702
822.258	236.979
822.387	248.596
822.515	268.660
822.643	266.851
822.771	265.149
822.899	256.277
823.027	290.851
823.155	244.745
823.283	241.128
823.412	260.426
823.540	251.957
823.668	292.957
823.796	244.894
823.924	282.894
824.052	285.957
824.180	266.617
824.308	240.277
824.437	243.277
824.565	249.681
824.693	276.511
824.821	257.426
824.949	256.979
825.077	256.553
825.205	285.149
825.333	267.489
825.462	273.128
825.590	251.021
825.718	274.660
825.846	253.340
825.974	238.745
826.102	243.234
826.230	242.745
826.358	252.191
826.487	246.489
826.615	286.191
826.743	238.979
826.871	267.234
826.999	303.000
827.127	252.596
827.255	259.043
827.383	239.362
827.512	264.447
827.640	241.149
827.768	241.170
827.896	253.894
828.024	246.915
828.152	247.213
828.280	248.064
828.408	244.319
828.537	248.851
828.665	253.191
828.793	255.489
828.921	232.170
829.049	262.979
829.177	240.617
829.305	239.723
829.433	250.000
829.562	257.043
829.690	236.957
829.818	271.468
829.946	244.723
830.074	253.213
830.202	261.106
830.330	268.085
830.458	281.957
830.587	242.787
830.715	255.128
830.843	244.085
830.971	251.894
831.099	268.298
831.227	245.128
831.355	238.447
831.483	259.340
831.612	273.596
831.740	248.894
831.868	251.255
831.996	243.191
832.124	244.574
832.252	229.766
832.380	251.404
832.508	297.532
832.637	244.723
832.765	243.809
832.893	275.319
833.021	235.511
833.149	233.532
833.277	248.511
833.405	243.213
833.533	232.447
833.662	241.106
833.790	228.404
833.918	246.213
834.046	278.255
834.174	240.936
834.302	238.255
834.430	233.894
834.558	246.234
834.687	255.149
834.815	229.468
834.943	244.043
835.071	246.021
835.199	240.957
835.327	269.064
835.455	230.638
835.583	268.191
835.712	231.021
835.840	232.340
835.968	241.766
836.096	293.277
836.224	248.745
836.352	231.766
836.480	253.596
836.608	255.000
836.737	233.000
836.865	230.021
836.993	247.638
837.121	241.787
837.249	231.745
837.377	258.000
837.505	249.979
837.633	234.830
837.762	237.702
837.890	273.553
838.018	271.000
838.146	279.809
838.274	248.979
838.402	267.809
838.530	242.064
838.658	223.255
838.787	248.149
838.915	242.830
839.043	225.553
839.171	259.340
839.299	225.213
839.427	239.787
839.555	241.681
839.683	257.766
839.812	265.553
839.940	234.000
840.068	245.191
840.196	249.745
840.324	242.426
840.452	239.809
840.580	271.191
840.708	240.404
840.837	274.255
840.965	235.830
841.093	240.957
841.221	234.809
841.349	240.106
841.477	256.234
841.605	245.915
841.733	235.979
841.862	237.766
841.990	290.298
842.118	227.277
842.246	236.064
842.374	241.787
842.502	221.043
842.630	257.723
842.758	263.191
842.887	229.383
843.015	237.340
843.143	261.170
843.271	241.574
843.399	275.681
843.527	243.277
843.655	223.234
843.783	239.872
843.912	224.957
844.040	263.638
844.168	227.574
844.296	234.085
844.424	224.319
844.552	245.766
844.680	252.532
844.808	258.298
844.937	237.340
845.065	231.213
845.193	259.702
845.321	238.957
845.449	236.404
845.577	243.149
845.705	234.787
845.833	229.830
845.962	248.894
846.090	229.681
846.218	239.638
846.346	248.787
846.474	247.447
846.602	239.617
846.730	267.851
846.858	252.553
846.987	238.787
847.115	225.298
847.243	262.851
847.371	249.064
847.499	252.106
847.627	239.660
847.755	230.638
847.883	241.957
848.012	246.298
848.140	233.511
848.268	251.319
848.396	226.809
848.524	260.255
848.652	217.447
848.780	238.936
848.908	243.596
849.037	237.553
849.165	247.979
849.293	246.532
849.421	259.468
849.549	237.447
849.677	238.319
849.805	240.383
849.933	246.362
850.062	235.000
850.190	238.489
850.318	242.553
850.446	227.511
850.574	227.404
850.702	235.085
850.830	236.468
850.958	249.872
851.087	222.000
851.215	242.809
851.343	230.362
851.471	234.745
851.599	246.489
851.727	234.340
851.855	278.149
851.983	241.809
852.112	238.106
852.240	229.234
852.368	236.277
852.496	238.511
852.624	231.489
852.752	241.170
852.880	212.915
853.008	235.766
853.137	242.745
853.265	253.426
853.393	232.894
853.521	247.553
853.649	253.021
853.777	227.170
853.905	243.553
854.033	233.383
854.162	295.702
854.290	234.064
854.418	219.681
854.546	226.681
854.674	328.787
854.802	233.957
854.930	226.298
855.058	219.660
855.187	221.936
855.315	252.787
855.443	218.681
855.571	225.830
855.699	229.553
855.827	232.170
855.955	230.149
856.083	235.894
856.212	246.723
856.340	222.660
856.468	278.447
856.596	252.851
856.724	234.660
856.852	235.638
856.980	224.213
857.108	246.830
857.237	215.702
857.365	260.128
857.493	231.830
857.621	220.191
857.749	238.319
857.877	251.851
858.005	253.660
858.133	233.851
858.262	227.574
858.390	225.426
858.518	219.043
858.646	225.553
858.774	225.277
858.902	205.872
859.030	229.957
859.158	238.745
859.287	245.766
859.415	258.000
859.543	219.660
859.671	219.468
859.799	248.383
859.927	237.021
860.055	229.660
860.183	238.979
860.312	237.043
860.440	241.362
860.568	228.660
860.696	223.702
860.824	295.702
860.952	271.511
861.080	234.574
861.208	239.021
861.337	240.064
861.465	262.787
861.593	261.851
861.721	232.043
861.849	230.213
861.977	217.468
862.105	235.872
862.233	260.043
862.362	237.362
862.490	255.574
862.618	216.745
862.746	236.213
862.874	223.681
863.002	224.234
863.130	252.383
863.258	232.234
863.387	241.702
863.515	250.000
863.643	240.638
863.771	298.489
863.899	232.426
864.027	216.553
864.155	218.404
864.283	252.213
864.412	223.787
864.540	222.043
864.668	222.298
864.796	229.234
864.924	237.149
865.052	242.128
865.180	228.638
865.308	209.511
865.437	234.468
865.565	242.787
865.693	263.021
865.821	237.277
865.949	254.574
866.077	229.596
866.205	239.851
866.333	245.681
866.462	225.617
866.590	238.085
866.718	243.426
866.846	226.213
866.974	245.170
867.102	241.787
867.230	260.191
867.358	238.532
867.487	228.255
867.615	253.255
867.743	236.638
867.871	240.596
867.999	239.043
868.127	229.660
868.255	279.574
868.383	276.511
868.512	222.979
868.640	226.340
868.768	227.000
868.896	217.149
869.024	258.617
869.152	226.702
869.280	236.128
869.408	260.553
869.537	223.149
869.665	300.213
869.793	219.298
869.921	259.319
870.049	240.681
870.177	240.277
870.305	272.085
870.433	223.298
870.562	245.915
870.690	217.681
870.818	225.702
870.946	236.596
871.074	267.255
871.202	239.638
871.330	251.000
871.458	209.234
871.587	225.787
871.715	237.149
871.843	224.915
871.971	227.064
872.099	239.511
872.227	224.511
872.355	241.979
872.483	237.574
872.612	240.979
872.740	237.085
872.868	226.723
872.996	227.511
873.124	223.936
873.252	231.511
873.380	225.979
873.508	220.723
873.637	247.149
873.765	228.745
873.893	284.702
874.021	236.872
874.149	226.234
874.277	239.830
874.405	223.064
874.533	236.021
874.662	1131.404
874.790	234.574
874.918	262.234
875.046	257.532
875.174	244.957
875.302	213.723
875.430	267.021
875.558	246.021
875.687	249.085
875.815	230.957
875.943	226.617
876.071	252.255
876.199	254.298
876.327	266.426
876.455	225.766
876.583	250.702
876.712	223.936
876.840	243.660
876.968	271.489
877.096	223.191
877.224	217.043
877.352	284.128
877.480	218.766
877.608	236.766
877.737	244.149
877.865	232.000
877.993	252.809
878.121	216.894
878.249	224.170
878.377	231.681
878.505	237.936
878.633	239.255
878.762	223.936
878.890	218.574
879.018	292.787
879.146	234.894
879.274	224.766
879.402	250.745
879.530	238.957
879.658	212.617
879.787	228.979
879.915	223.000
880.043	259.660
880.171	217.894
880.299	251.106
880.427	240.638
880.555	235.404
880.683	253.255
880.812	218.638
880.940	262.106
881.068	223.766
881.196	227.957
881.324	242.979
881.452	214.574
881.580	255.277
881.708	253.064
881.837	245.383
881.965	245.319
882.093	246.766
882.221	223.915
882.349	265.340
882.477	255.128
882.605	241.723
882.733	223.553
882.862	271.277
882.990	243.702
883.118	231.000
883.246	234.532
883.374	232.362
883.502	224.894
883.630	219.043
883.758	230.574
883.887	236.447
884.015	214.872
884.143	230.447
884.271	242.383
884.399	218.000
884.527	227.851
884.655	211.255
884.783	238.021
884.912	248.894
885.040	226.255
885.168	296.319
885.296	223.638
885.424	246.766
885.552	239.979
885.680	231.426
885.808	228.319
885.937	242.766
886.065	247.191
886.193	221.149
886.321	266.872
886.449	222.681
886.577	276.106
886.705	220.468
886.833	219.064
886.962	224.404
887.090	237.574
887.218	234.596
887.346	246.383
887.474	258.681
887.602	240.851
887.730	235.043
887.858	258.426
887.987	226.809
888.115	267.745
888.243	236.574
888.371	233.936
888.499	229.064
888.627	242.468
888.755	242.851
888.883	232.106
889.012	229.043
889.140	227.149
889.268	248.809
889.396	243.638
889.524	228.468
889.652	219.894
889.780	215.170
889.908	256.830
890.037	219.723
890.165	227.064
890.293	254.489
890.421	288.511
890.549	239.553
890.677	238.638
890.805	226.766
890.933	256.745
891.062	231.000
891.190	232.234
891.318	240.851
891.446	237.638
891.574	220.255
891.702	231.894
891.830	221.213
891.958	255.617
892.087	264.383
892.215	243.872
892.343	240.660
892.471	245.064
892.599	229.426
892.727	253.872
892.855	222.191
892.983	221.511
893.112	233.574
893.240	223.766
893.368	254.489
893.496	235.319
893.624	235.319
893.752	289.809
893.880	264.979
894.008	209.957
894.137	241.064
894.265	243.383
894.393	233.043
894.521	226.574
894.649	258.617
894.777	234.362
894.905	216.681
895.033	262.255
895.162	226.809
895.290	266.106
895.418	249.298
895.546	236.979
895.674	316.021
895.802	226.383
895.930	244.447
896.058	213.404
896.187	229.468
896.315	223.787
896.443	222.021
896.571	233.979
896.699	234.298
896.827	242.617
896.955	240.447
897.083	225.213
897.212	261.872
897.340	230.511
897.468	213.468
897.596	220.617
897.724	271.702
897.852	243.596
897.980	230.702
898.108	229.340
898.237	222.447
898.365	222.149
898.493	235.255
898.621	231.553
898.749	229.787
898.877	240.979
899.005	214.851
899.133	227.702
899.262	243.617
899.390	266.489
899.518	231.979
899.646	233.723
899.774	253.149
899.902	309.872
900.030	247.362
900.158	234.298
900.287	247.255
900.415	212.340
900.543	244.000
900.671	236.809
900.799	260.511
900.927	228.809
901.055	223.702
901.183	234.426
901.312	256.511
901.440	246.255
901.568	243.404
901.696	234.149
901.824	242.255
901.952	241.851
902.080	348.191
902.208	262.574
902.337	226.787
902.465	245.894
902.593	235.894
902.721	236.830
902.849	245.745
902.977	245.298
903.105	230.723
903.233	249.745
903.362	231.085
903.490	249.851
903.618	223.681
903.746	254.404
903.874	228.787
904.002	237.383
904.130	239.170
904.258	257.234
904.387	229.340
904.515	248.234
904.643	220.426
904.771	230.979
904.899	247.574
905.027	262.787
905.155	238.957
905.283	230.404
905.412	262.979
905.540	233.149
905.668	235.213
905.796	234.128
905.924	236.872
906.052	241.468
906.180	260.638
906.308	242.447
906.437	269.638
906.565	242.426
906.693	240.170
906.821	223.702
906.949	232.574
907.077	249.447
907.205	244.404
907.333	241.340
907.462	233.362
907.590	231.255
907.718	260.851
907.846	274.894
907.974	232.468
908.102	240.489
908.230	265.106
908.358	277.787
908.487	239.553
908.615	246.319
908.743	249.362
908.871	298.915
908.999	236.681
909.127	270.106
909.255	224.362
909.383	230.766
909.512	272.638
909.640	248.362
909.768	237.957
909.896	293.936
910.024	265.617
910.152	247.170
910.280	293.383
910.408	245.404
910.537	244.979
910.665	277.106
910.793	242.404
910.921	260.404
911.049	235.021
911.177	228.574
911.305	256.660
911.433	252.170
911.562	244.319
911.690	249.319
911.818	299.830
911.946	236.170
912.074	258.979
912.202	273.234
912.330	246.468
912.458	246.830
912.587	257.809
912.715	269.043
912.843	264.617
912.971	262.000
913.099	281.915
913.227	265.043
913.355	254.638
913.483	263.596
913.612	259.319
913.740	380.872
913.868	268.511
