0pol_90_80_at_750.00nm_cut_at_984.50Y_01.dat
24.04.2023
10:50:55
cut middle at Y: 984.50
top cursor: 1008 down cursor: 961 mean of: 47 lines , 2560 datapoints
wavelength(nm)	intensity[arb. units]
585.996	17037.787
586.124	16709.277
586.252	16650.957
586.380	16706.723
586.508	16791.128
586.637	16915.468
586.765	17090.085
586.893	17090.319
587.021	17133.340
587.149	17282.426
587.277	17295.489
587.405	17396.149
587.533	17351.957
587.662	17549.660
587.790	17521.085
587.918	17479.809
588.046	17629.553
588.174	17609.787
588.302	17700.404
588.430	17651.872
588.558	17705.681
588.687	17820.957
588.815	17798.660
588.943	17811.106
589.071	17809.745
589.199	17959.894
589.327	18031.149
589.455	17946.532
589.583	18098.362
589.712	18162.979
589.840	18165.404
589.968	18197.340
590.096	18304.830
590.224	18319.872
590.352	18405.404
590.480	18438.532
590.608	18489.383
590.737	18631.191
590.865	18608.787
590.993	18592.574
591.121	18727.426
591.249	18737.596
591.377	18796.213
591.505	18820.766
591.633	18917.872
591.762	18977.170
591.890	19206.979
592.018	19007.128
592.146	19161.404
592.274	19219.957
592.402	19319.149
592.530	19358.106
592.658	19674.532
592.787	19581.213
592.915	19673.149
593.043	19699.872
593.171	19804.511
593.299	19914.170
593.427	19991.681
593.555	20091.170
593.683	20122.681
593.812	20256.277
593.940	20353.234
594.068	20431.404
594.196	20623.319
594.324	20663.213
594.452	20693.936
594.580	20761.043
594.708	20839.511
594.837	20978.872
594.965	21108.447
595.093	21187.362
595.221	21258.489
595.349	21503.745
595.477	21502.043
595.605	21571.064
595.733	21617.362
595.862	21878.362
595.990	21786.362
596.118	21849.915
596.246	22104.277
596.374	22099.872
596.502	22188.319
596.630	22225.170
596.758	22362.915
596.887	22348.447
597.015	22471.553
597.143	22532.766
597.271	22604.106
597.399	22665.426
597.527	22652.553
597.655	22911.426
597.783	22778.426
597.912	22932.085
598.040	22957.128
598.168	23036.979
598.296	23098.511
598.424	23101.234
598.552	23129.489
598.680	23216.064
598.808	23349.936
598.937	23369.830
599.065	23341.319
599.193	23509.468
599.321	23543.681
599.449	23500.511
599.577	23581.596
599.705	23741.468
599.833	23774.064
599.962	23893.766
600.090	24026.468
600.218	24092.681
600.346	24180.766
600.474	24248.489
600.602	24277.149
600.730	24439.936
600.858	24551.191
600.987	24762.532
601.115	24811.574
601.243	25050.319
601.371	25049.660
601.499	25187.426
601.627	25378.426
601.755	25368.809
601.883	25649.191
602.012	25812.596
602.140	25821.809
602.268	26064.234
602.396	26216.894
602.524	26410.809
602.652	26464.766
602.780	26634.702
602.908	26795.702
603.037	26917.468
603.165	27053.085
603.293	27207.596
603.421	27445.894
603.549	27536.936
603.677	27738.596
603.805	27841.957
603.933	28084.468
604.062	28258.957
604.190	28380.255
604.318	28566.319
604.446	28639.319
604.574	28846.064
604.702	29056.851
604.830	29130.809
604.958	29338.277
605.087	29463.723
605.215	29607.766
605.343	29681.936
605.471	29874.723
605.599	30052.574
605.727	30138.809
605.855	30291.447
605.983	30377.489
606.112	30536.957
606.240	30652.043
606.368	30773.489
606.496	31086.085
606.624	31055.106
606.752	31236.468
606.880	31449.511
607.008	31570.872
607.137	31609.383
607.265	31539.915
607.393	31700.426
607.521	31936.447
607.649	31967.000
607.777	32065.106
607.905	32183.213
608.033	32143.255
608.162	32279.298
608.290	32363.319
608.418	32470.979
608.546	32604.787
608.674	32645.298
608.802	32804.766
608.930	32807.404
609.058	32925.191
609.187	33159.660
609.315	33118.298
609.443	33294.766
609.571	33409.617
609.699	33386.404
609.827	33576.489
609.955	33622.489
610.083	33643.340
610.212	33831.426
610.340	33882.149
610.468	34001.660
610.596	34106.851
610.724	34243.830
610.852	34238.787
610.980	34368.447
611.108	34561.447
611.237	34617.532
611.365	34752.383
611.493	34821.915
611.621	35060.447
611.749	35130.170
611.877	35376.340
612.005	35479.404
612.133	35599.809
612.262	35729.340
612.390	35899.660
612.518	36124.745
612.646	36410.319
612.774	36349.128
612.902	36566.617
613.030	36790.489
613.158	36989.043
613.287	36985.915
613.415	37180.106
613.543	37261.532
613.671	37390.766
613.799	37718.426
613.927	37685.234
614.055	37849.106
614.183	38125.447
614.312	38192.574
614.440	38411.596
614.568	38516.511
614.696	38682.489
614.824	38985.511
614.952	38948.000
615.080	39245.638
615.208	39404.255
615.337	39506.362
615.465	39679.809
615.593	40020.809
615.721	40261.830
615.849	40458.447
615.977	40623.489
616.105	40734.957
616.233	40838.936
616.362	41018.191
616.490	41213.638
616.618	41423.255
616.746	41529.766
616.874	41683.787
617.002	41812.681
617.130	41920.383
617.258	42262.532
617.387	42248.255
617.515	42321.638
617.643	42628.574
617.771	42665.596
617.899	42827.213
618.027	42986.745
618.155	43140.426
618.283	43308.404
618.412	43281.128
618.540	43504.149
618.668	43583.085
618.796	43734.809
618.924	43992.766
619.052	44001.957
619.180	44143.170
619.308	44297.745
619.437	44441.234
619.565	44455.277
619.693	44557.532
619.821	44706.915
619.949	44737.915
620.077	44943.298
620.205	45137.553
620.333	45163.915
620.462	45410.277
620.590	45461.787
620.718	45528.043
620.846	45713.681
620.974	45750.851
621.102	45853.979
621.230	46024.851
621.358	46132.000
621.487	46134.191
621.615	46244.532
621.743	46444.447
621.871	46481.000
621.999	46590.383
622.127	46643.489
622.255	46800.936
622.383	46861.638
622.512	46950.553
622.640	47198.957
622.768	47061.021
622.896	47165.617
623.024	47290.340
623.152	47464.404
623.280	47501.638
623.408	47544.809
623.537	47588.043
623.665	47621.681
623.793	47737.638
623.921	47811.362
624.049	47859.106
624.177	47922.979
624.305	48173.191
624.433	48112.000
624.562	48393.064
624.690	48332.489
624.818	48430.362
624.946	48559.383
625.074	48544.638
625.202	48574.511
625.330	48539.723
625.458	48725.723
625.587	48843.000
625.715	48831.702
625.843	48928.170
625.971	49116.170
626.099	49064.574
626.227	49119.660
626.355	49103.064
626.483	49335.681
626.612	49274.277
626.740	49437.447
626.868	49517.213
626.996	49651.255
627.124	49620.574
627.252	49622.596
627.380	49727.340
627.508	49991.979
627.637	49906.383
627.765	50034.787
627.893	50206.702
628.021	50359.170
628.149	50424.979
628.277	50534.617
628.405	50667.681
628.533	50561.702
628.662	50611.532
628.790	50653.106
628.918	50713.809
629.046	50985.000
629.174	51113.213
629.302	51235.362
629.430	51357.979
629.558	51344.638
629.687	51308.957
629.815	51500.979
629.943	51566.872
630.071	51587.809
630.199	51638.574
630.327	51694.234
630.455	51826.915
630.583	51913.532
630.712	52023.936
630.840	52186.872
630.968	52100.128
631.096	52169.319
631.224	52265.468
631.352	52320.447
631.480	52525.234
631.608	52403.043
631.737	52526.872
631.865	52657.553
631.993	52469.426
632.121	52705.532
632.249	52626.830
632.377	52619.851
632.505	52676.468
632.633	52504.128
632.762	52627.617
632.890	52688.532
633.018	52632.851
633.146	52827.872
633.274	52470.894
633.402	52788.681
633.530	52577.213
633.658	52745.511
633.787	52484.170
633.915	52524.894
634.043	52458.447
634.171	52484.894
634.299	52424.915
634.427	52466.426
634.555	52141.213
634.683	52211.511
634.812	52225.128
634.940	52136.766
635.068	52155.340
635.196	51981.021
635.324	51921.574
635.452	51776.511
635.580	51798.915
635.708	51691.851
635.837	51562.915
635.965	51581.872
636.093	51353.638
636.221	51365.596
636.349	51387.553
636.477	51221.723
636.605	51293.596
636.733	50933.191
636.862	50858.830
636.990	50782.489
637.118	50648.936
637.246	50711.383
637.374	50519.723
637.502	50585.936
637.630	50291.255
637.758	50228.021
637.887	50149.596
638.015	50053.681
638.143	50007.128
638.271	49920.277
638.399	49803.383
638.527	49670.277
638.655	49615.702
638.783	49549.340
638.912	49462.340
639.040	49347.574
639.168	49335.106
639.296	49115.255
639.424	49256.830
639.552	48999.830
639.680	49065.000
639.808	48988.426
639.937	48802.957
640.065	48737.362
640.193	48723.936
640.321	48739.277
640.449	48542.617
640.577	48589.213
640.705	48554.638
640.833	48497.426
640.962	48331.638
641.090	48350.064
641.218	48203.043
641.346	48136.468
641.474	48180.000
641.602	48037.894
641.730	47988.532
641.858	47998.830
641.987	47991.340
642.115	47958.234
642.243	47875.128
642.371	47757.319
642.499	47794.660
642.627	47774.128
642.755	47625.085
642.883	47605.064
643.012	47542.149
643.140	47491.234
643.268	47427.043
643.396	47300.596
643.524	47393.638
643.652	47257.234
643.780	47122.383
643.908	47051.340
644.037	47003.021
644.165	46987.511
644.293	46853.596
644.421	46797.830
644.549	46658.468
644.677	46575.191
644.805	46515.957
644.933	46284.894
645.062	46225.340
645.190	46032.574
645.318	46106.574
645.446	45858.830
645.574	45788.404
645.702	45669.468
645.830	45783.660
645.958	45387.638
646.087	45499.319
646.215	45135.106
646.343	45303.915
646.471	44934.957
646.599	44825.617
646.727	44621.936
646.855	44477.915
646.983	44329.021
647.112	44275.191
647.240	44176.830
647.368	43962.745
647.496	43866.872
647.624	43624.723
647.752	43483.213
647.880	43299.745
648.008	43162.851
648.137	43107.255
648.265	42851.447
648.393	42750.830
648.521	42535.149
648.649	42379.234
648.777	42244.957
648.905	42004.745
649.033	41783.362
649.162	41687.362
649.290	41563.191
649.418	41275.085
649.546	41166.319
649.674	40979.851
649.802	40772.319
649.930	40794.064
650.058	40532.447
650.187	40235.340
650.315	40158.638
650.443	40020.468
650.571	39840.511
650.699	39684.681
650.827	39486.426
650.955	39358.638
651.083	39147.298
651.212	39075.894
651.340	38910.511
651.468	38795.787
651.596	38553.213
651.724	38445.043
651.852	38291.128
651.980	38091.872
652.108	37887.979
652.237	37803.298
652.365	37608.340
652.493	37519.894
652.621	37349.128
652.749	37237.894
652.877	37009.596
653.005	36851.511
653.133	36738.106
653.262	36558.404
653.390	36472.213
653.518	36312.596
653.646	36159.766
653.774	36055.489
653.902	35812.085
654.030	35698.277
654.158	35456.447
654.287	35423.191
654.415	35180.043
654.543	35098.617
654.671	34937.574
654.799	34761.106
654.927	34570.383
655.055	34440.085
655.183	34268.957
655.312	34196.957
655.440	34117.638
655.568	33888.702
655.696	33761.106
655.824	33730.936
655.952	33494.872
656.080	33269.000
656.208	33206.319
656.337	32940.872
656.465	32928.064
656.593	32752.426
656.721	32489.468
656.849	32353.191
656.977	32310.064
657.105	32104.511
657.233	31883.872
657.362	31776.574
657.490	31531.277
657.618	31467.957
657.746	31338.851
657.874	31133.936
658.002	31098.362
658.130	30787.021
658.258	30685.191
658.387	30627.702
658.515	30413.745
658.643	30320.851
658.771	30136.191
658.899	30074.489
659.027	29842.489
659.155	29740.809
659.283	29765.043
659.412	29442.298
659.540	29396.000
659.668	29156.085
659.796	29089.277
659.924	28937.106
660.052	28746.000
660.180	28558.787
660.308	28457.553
660.437	28241.809
660.565	28228.149
660.693	28032.468
660.821	27988.532
660.949	27841.064
661.077	27731.936
661.205	27515.574
661.333	27421.617
661.462	27406.085
661.590	27185.532
661.718	27119.064
661.846	26932.574
661.974	26906.638
662.102	26703.000
662.230	26582.660
662.358	26395.702
662.487	26363.660
662.615	26165.532
662.743	26094.851
662.871	25988.957
662.999	25859.149
663.127	25766.106
663.255	25693.000
663.383	25599.766
663.512	25501.660
663.640	25479.532
663.768	25213.383
663.896	25175.660
664.024	25099.957
664.152	24982.766
664.280	24924.191
664.408	24791.064
664.537	24713.553
664.665	24595.489
664.793	24424.979
664.921	24331.021
665.049	24264.383
665.177	24159.787
665.305	24077.872
665.433	23903.021
665.562	23821.383
665.690	23790.745
665.818	23810.170
665.946	23551.915
666.074	23518.553
666.202	23352.255
666.330	23330.532
666.458	23163.745
666.587	23141.362
666.715	23029.489
666.843	22935.745
666.971	22772.404
667.099	22716.553
667.227	22626.255
667.355	22517.809
667.483	22455.532
667.612	22281.872
667.740	22349.298
667.868	22217.000
667.996	22115.638
668.124	21967.915
668.252	21839.894
668.380	21801.681
668.508	21673.298
668.637	21596.596
668.765	21484.362
668.893	21377.660
669.021	21293.872
669.149	21226.723
669.277	21200.766
669.405	21008.191
669.533	20960.596
669.662	21119.638
669.790	20749.213
669.918	20665.532
670.046	20498.617
670.174	20500.766
670.302	20394.638
670.430	20308.170
670.558	20174.064
670.687	20000.319
670.815	20067.957
670.943	19838.809
671.071	19680.957
671.199	19593.936
671.327	19542.745
671.455	19372.340
671.583	19297.745
671.712	19300.681
671.840	19160.191
671.968	18902.787
672.096	18856.213
672.224	18781.766
672.352	18748.064
672.480	18525.404
672.608	18383.979
672.737	18316.085
672.865	18350.957
672.993	18106.043
673.121	18001.936
673.249	17881.596
673.377	17761.957
673.505	17613.617
673.633	17533.553
673.762	17411.660
673.890	17303.277
674.018	17437.383
674.146	17217.021
674.274	17031.043
674.402	17081.957
674.530	16817.702
674.658	16695.468
674.787	16656.702
674.915	16515.447
675.043	16554.596
675.171	16414.979
675.299	16214.489
675.427	16150.489
675.555	16046.064
675.683	15963.596
675.812	15872.723
675.940	15820.298
676.068	15704.979
676.196	15601.255
676.324	15527.362
676.452	15384.106
676.580	15276.298
676.708	15200.255
676.837	15184.936
676.965	15052.362
677.093	14940.766
677.221	14837.447
677.349	14839.830
677.477	14779.234
677.605	14630.149
677.733	14602.851
677.862	14412.766
677.990	14333.532
678.118	14282.234
678.246	14183.851
678.374	14179.000
678.502	14007.872
678.630	13962.362
678.758	13895.213
678.887	13844.851
679.015	13747.000
679.143	13618.021
679.271	13576.362
679.399	13521.064
679.527	13425.617
679.655	13377.255
679.783	13376.000
679.912	13324.532
680.040	13254.362
680.168	13137.766
680.296	13057.872
680.424	12993.319
680.552	12946.723
680.680	12968.957
680.808	12888.702
680.937	12733.085
681.065	12722.574
681.193	12654.957
681.321	12629.191
681.449	12523.362
681.577	12479.383
681.705	12465.936
681.833	12345.383
681.962	12273.021
682.090	12403.723
682.218	12198.745
682.346	12125.553
682.474	12073.957
682.602	12006.021
682.730	12001.043
682.858	11896.979
682.987	11897.362
683.115	11871.362
683.243	11747.596
683.371	11677.340
683.499	11707.851
683.627	11646.617
683.755	11609.979
683.883	11647.553
684.012	11476.766
684.140	11406.553
684.268	11354.574
684.396	11319.638
684.524	11315.043
684.652	11292.638
684.780	11212.106
684.908	11161.043
685.037	11068.617
685.165	10969.915
685.293	10974.298
685.421	11008.426
685.549	10866.383
685.677	10815.638
685.805	10912.277
685.933	10785.447
686.062	10667.511
686.190	10634.617
686.318	10664.277
686.446	10543.766
686.574	10523.128
686.702	10568.489
686.830	10367.979
686.958	10282.915
687.087	10312.149
687.215	10290.574
687.343	10180.170
687.471	10147.106
687.599	10066.809
687.727	10262.021
687.855	10001.936
687.983	10013.298
688.112	10110.851
688.240	9901.915
688.368	9843.553
688.496	9819.213
688.624	9811.426
688.752	9661.936
688.880	9641.553
689.008	9552.319
689.137	9538.085
689.265	9489.766
689.393	9415.128
689.521	9397.532
689.649	9333.574
689.777	9255.277
689.905	9220.809
690.033	9205.468
690.162	9128.766
690.290	9087.936
690.418	9060.766
690.546	9065.979
690.674	9021.872
690.802	8914.596
690.930	8891.489
691.058	8794.638
691.187	8759.489
691.315	8711.085
691.443	8755.128
691.571	8624.723
691.699	8600.894
691.827	8591.149
691.955	8474.596
692.083	8443.660
692.212	8538.574
692.340	8366.064
692.468	8331.511
692.596	8320.404
692.724	8373.447
692.852	8180.191
692.980	8172.298
693.108	8094.511
693.237	8034.340
693.365	8035.404
693.493	7921.404
693.621	7905.894
693.749	7813.128
693.877	7811.213
694.005	7875.489
694.133	7744.106
694.262	7745.660
694.390	7639.638
694.518	7629.638
694.646	7623.830
694.774	7533.809
694.902	7624.191
695.030	7515.787
695.158	7383.255
695.287	7410.064
695.415	7370.468
695.543	7292.021
695.671	7393.915
695.799	7288.574
695.927	7220.383
696.055	7204.745
696.183	7180.979
696.312	7113.745
696.440	7275.596
696.568	7149.830
696.696	7066.234
696.824	6960.660
696.952	6964.681
697.080	6915.957
697.208	6867.553
697.337	6874.255
697.465	6813.447
697.593	6742.596
697.721	6730.255
697.849	6679.021
697.977	6652.319
698.105	6706.170
698.233	6591.660
698.362	6612.511
698.490	6529.149
698.618	6505.851
698.746	6594.149
698.874	6449.468
699.002	6639.553
699.130	6386.170
699.258	6396.000
699.387	6339.064
699.515	6338.277
699.643	6277.043
699.771	6279.298
699.899	6192.596
700.027	6226.191
700.155	6151.383
700.283	6107.277
700.412	6103.383
700.540	6068.277
700.668	6053.766
700.796	5968.213
700.924	5975.553
701.052	5927.362
701.180	5991.787
701.308	5894.000
701.437	5782.681
701.565	5759.149
701.693	5745.553
701.821	5706.319
701.949	5705.809
702.077	5694.213
702.205	5598.319
702.333	5597.021
702.462	5522.255
702.590	5501.426
702.718	5459.106
702.846	5425.596
702.974	5396.468
703.102	5401.426
703.230	5450.298
703.358	5396.383
703.487	5253.872
703.615	5425.404
703.743	5228.298
703.871	5188.915
703.999	5215.234
704.127	5256.489
704.255	5057.766
704.383	5244.383
704.512	5058.894
704.640	5032.085
704.768	4954.043
704.896	5042.851
705.024	4911.957
705.152	4998.532
705.280	4865.213
705.408	4799.638
705.537	4796.128
705.665	4746.468
705.793	4698.702
705.921	4665.574
706.049	4681.191
706.177	4608.340
706.305	4618.723
706.433	4693.447
706.562	4565.787
706.690	4508.702
706.818	4447.128
706.946	4638.000
707.074	4478.787
707.202	4413.170
707.330	4446.277
707.458	4372.404
707.587	4282.574
707.715	4321.574
707.843	4347.957
707.971	4322.787
708.099	4323.766
708.227	4233.106
708.355	4207.213
708.483	4171.362
708.612	4118.255
708.740	4149.574
708.868	4192.511
708.996	4086.404
709.124	4122.745
709.252	4087.872
709.380	4016.617
709.508	4070.553
709.637	3975.532
709.765	3971.851
709.893	3963.149
710.021	3949.085
710.149	3934.511
710.277	3945.234
710.405	3856.085
710.533	3832.106
710.662	3815.319
710.790	3783.319
710.918	3785.447
711.046	3802.979
711.174	3738.830
711.302	3731.532
711.430	3808.447
711.558	3642.511
711.687	3646.170
711.815	3668.362
711.943	3647.489
712.071	3633.362
712.199	3643.766
712.327	3596.830
712.455	3544.787
712.583	3593.000
712.712	3540.340
712.840	3516.617
712.968	3488.085
713.096	3499.809
713.224	3419.723
713.352	3456.787
713.480	3413.085
713.608	3406.085
713.737	3389.213
713.865	3402.468
713.993	3430.149
714.121	3364.702
714.249	3366.404
714.377	3428.128
714.505	3347.021
714.633	3485.936
714.762	3353.362
714.890	3275.574
715.018	3289.766
715.146	3290.191
715.274	3323.298
715.402	3389.106
715.530	3303.000
715.658	3187.298
715.787	3167.553
715.915	3340.979
716.043	3151.617
716.171	3212.787
716.299	3212.660
716.427	3143.660
716.555	3108.596
716.683	3108.319
716.812	3080.936
716.940	3099.468
717.068	3016.340
717.196	3228.213
717.324	3122.128
717.452	3068.979
717.580	2985.872
717.708	2985.851
717.837	3034.489
717.965	2927.979
718.093	2937.404
718.221	2862.681
718.349	2934.872
718.477	2904.532
718.605	2910.426
718.733	2856.702
718.862	2867.319
718.990	2831.532
719.118	2850.787
719.246	2787.362
719.374	2854.234
719.502	2833.383
719.630	2929.638
719.758	2733.128
719.887	2729.511
720.015	2929.234
720.143	2688.277
720.271	2681.617
720.399	2710.723
720.527	2720.064
720.655	2727.681
720.783	2759.809
720.912	2630.617
721.040	2618.936
721.168	2623.362
721.296	2655.298
721.424	2599.128
721.552	2547.809
721.680	2553.766
721.808	2591.574
721.937	2568.745
722.065	2640.064
722.193	2638.532
722.321	2541.660
722.449	2528.234
722.577	2498.511
722.705	2516.383
722.833	2536.064
722.962	2522.660
723.090	2487.234
723.218	2453.426
723.346	2457.766
723.474	2474.851
723.602	2519.128
723.730	2493.702
723.858	2518.106
723.987	2464.830
724.115	2417.574
724.243	2433.872
724.371	2441.511
724.499	2433.426
724.627	2413.936
724.755	2391.447
724.883	2405.106
725.012	2373.234
725.140	2339.319
725.268	2305.957
725.396	2329.043
725.524	2297.021
725.652	2313.809
725.780	2288.000
725.908	2272.596
726.037	2270.298
726.165	2248.340
726.293	2212.574
726.421	2223.532
726.549	2226.489
726.677	2206.702
726.805	2192.617
726.933	2202.298
727.062	2147.447
727.190	2168.979
727.318	2137.745
727.446	2151.660
727.574	2139.468
727.702	2150.043
727.830	2092.234
727.958	2138.660
728.087	2099.787
728.215	2126.128
728.343	2053.681
728.471	2062.553
728.599	2059.574
728.727	2062.766
728.855	2053.830
728.983	2045.766
729.112	2018.702
729.240	2003.511
729.368	2010.340
729.496	2014.787
729.624	1986.234
729.752	1993.979
729.880	1986.000
730.008	1961.255
730.137	1967.383
730.265	1976.872
730.393	1936.489
730.521	1949.766
730.649	1905.383
730.777	1939.043
730.905	1889.957
731.033	1915.106
731.162	1962.000
731.290	1995.277
731.418	1941.872
731.546	1970.681
731.674	1843.021
731.802	1852.064
731.930	1846.745
732.058	1830.426
732.187	1865.213
732.315	1797.489
732.443	1829.809
732.571	1814.340
732.699	1796.191
732.827	1810.553
732.955	1781.319
733.083	1768.936
733.212	1775.234
733.340	1759.340
733.468	1749.213
733.596	1733.766
733.724	1700.404
733.852	1749.872
733.980	1723.043
734.108	1726.511
734.237	1768.085
734.365	1712.872
734.493	1734.426
734.621	1668.468
734.749	1705.170
734.877	1693.894
735.005	1684.894
735.133	1662.809
735.262	1680.745
735.390	1624.426
735.518	1644.277
735.646	1628.043
735.774	1645.404
735.902	1648.468
736.030	1611.596
736.158	1651.383
736.287	1617.809
736.415	1624.340
736.543	1566.574
736.671	1580.277
736.799	1577.574
736.927	1637.979
737.055	1583.234
737.183	1557.957
737.312	1553.106
737.440	1584.957
737.568	1623.596
737.696	1551.000
737.824	1570.723
737.952	1512.489
738.080	1508.660
738.208	1555.043
738.337	1504.489
738.465	1588.383
738.593	1476.298
738.721	1461.340
738.849	1477.170
738.977	1480.277
739.105	1452.830
739.233	1477.277
739.362	1466.191
739.490	1410.213
739.618	1415.362
739.746	1440.979
739.874	1429.362
740.002	1410.340
740.130	1414.830
740.258	1417.617
740.387	1395.681
740.515	1375.383
740.643	1372.255
740.771	1418.596
740.899	1376.213
741.027	1365.979
741.155	1392.255
741.283	1338.851
741.412	1339.830
741.540	1339.447
741.668	1326.809
741.796	1332.489
741.924	1365.553
742.052	1327.830
742.180	1298.915
742.308	1318.851
742.437	1298.234
742.565	1342.617
742.693	1312.383
742.821	1274.298
742.949	1342.298
743.077	1291.340
743.205	1286.851
743.333	1278.511
743.462	1287.255
743.590	1278.936
743.718	1263.085
743.846	1267.468
743.974	1255.426
744.102	1245.426
744.230	1245.383
744.358	1236.617
744.487	1234.362
744.615	1240.532
744.743	1202.468
744.871	1216.085
744.999	1265.766
745.127	1185.553
745.255	1190.851
745.383	1211.915
745.512	1185.362
745.640	1172.404
745.768	1202.426
745.896	1186.319
746.024	1170.426
746.152	1133.128
746.280	1164.021
746.408	1147.021
746.537	1130.000
746.665	1156.617
746.793	1147.596
746.921	1123.319
747.049	1145.766
747.177	1156.660
747.305	1156.000
747.433	1168.638
747.562	1111.021
747.690	1112.553
747.818	1114.468
747.946	1098.851
748.074	1189.234
748.202	1114.617
748.330	1090.915
748.458	1102.872
748.587	1067.170
748.715	1072.362
748.843	1084.830
748.971	1051.468
749.099	1063.745
749.227	1076.340
749.355	1051.468
749.483	1046.021
749.612	1050.064
749.740	1038.617
749.868	1017.383
749.996	1032.128
750.124	1014.851
750.252	1027.553
750.380	1024.277
750.508	1002.298
750.637	996.596
750.765	1021.851
750.893	1012.191
751.021	1037.255
751.149	1006.574
751.277	1016.447
751.405	1040.085
751.533	1056.511
751.662	968.787
751.790	999.106
751.918	962.362
752.046	974.787
752.174	947.702
752.302	1014.787
752.430	958.319
752.558	947.255
752.687	938.277
752.815	948.468
752.943	929.383
753.071	918.979
753.199	926.383
753.327	971.128
753.455	926.128
753.583	904.723
753.712	920.596
753.840	897.234
753.968	896.957
754.096	918.745
754.224	901.000
754.352	886.064
754.480	880.957
754.608	880.021
754.737	891.106
754.865	928.681
754.993	884.149
755.121	870.064
755.249	939.617
755.377	893.043
755.505	858.787
755.633	892.915
755.762	863.255
755.890	942.723
756.018	902.255
756.146	863.787
756.274	846.766
756.402	846.447
756.530	855.574
756.658	859.319
756.787	861.255
756.915	816.149
757.043	851.277
757.171	831.660
757.299	835.723
757.427	808.362
757.555	819.340
757.683	863.404
757.812	792.787
757.940	803.340
758.068	794.617
758.196	785.617
758.324	786.936
758.452	886.043
758.580	774.553
758.708	795.426
758.837	780.830
758.965	873.447
759.093	764.043
759.221	760.298
759.349	772.489
759.477	745.128
759.605	747.894
759.733	742.872
759.862	756.936
759.990	739.809
760.118	745.383
760.246	723.830
760.374	747.468
760.502	752.170
760.630	739.894
760.758	728.447
760.887	704.957
761.015	719.915
761.143	700.553
761.271	716.085
761.399	693.021
761.527	712.532
761.655	696.277
761.783	688.149
761.912	685.319
762.040	676.511
762.168	719.681
762.296	685.702
762.424	672.043
762.552	688.255
762.680	744.021
762.808	657.213
762.937	688.383
763.065	720.872
763.193	721.149
763.321	678.553
763.449	652.447
763.577	654.340
763.705	649.383
763.833	721.894
763.962	655.170
764.090	640.511
764.218	669.447
764.346	646.681
764.474	629.957
764.602	641.638
764.730	631.574
764.858	650.681
764.987	630.511
765.115	676.851
765.243	620.106
765.371	611.319
765.499	602.851
765.627	598.447
765.755	606.511
765.883	611.170
766.012	617.085
766.140	590.277
766.268	595.511
766.396	576.085
766.524	592.000
766.652	579.277
766.780	582.532
766.908	598.426
767.037	593.617
767.165	605.979
767.293	644.638
767.421	580.128
767.549	584.787
767.677	590.766
767.805	576.340
767.933	580.702
768.062	581.511
768.190	573.936
768.318	557.830
768.446	583.617
768.574	595.489
768.702	585.149
768.830	566.255
768.958	552.106
769.087	535.277
769.215	550.085
769.343	556.596
769.471	541.213
769.599	577.574
769.727	562.809
769.855	544.787
769.983	545.000
770.112	531.191
770.240	532.298
770.368	541.064
770.496	517.447
770.624	530.447
770.752	536.106
770.880	570.106
771.008	520.596
771.137	517.681
771.265	558.851
771.393	538.936
771.521	523.447
771.649	507.532
771.777	523.149
771.905	514.830
772.033	522.213
772.162	536.830
772.290	510.511
772.418	567.787
772.546	526.447
772.674	499.064
772.802	519.915
772.930	551.106
773.058	498.000
773.187	517.383
773.315	508.255
773.443	515.234
773.571	489.404
773.699	501.447
773.827	480.574
773.955	526.872
774.083	513.447
774.212	492.447
774.340	524.383
774.468	489.936
774.596	492.149
774.724	493.553
774.852	487.404
774.980	478.766
775.108	479.766
775.237	485.064
775.365	484.362
775.493	483.723
775.621	484.553
775.749	487.957
775.877	476.532
776.005	487.723
776.133	501.596
776.262	485.532
776.390	455.170
776.518	514.213
776.646	467.021
776.774	483.213
776.902	476.617
777.030	469.298
777.158	474.511
777.287	489.574
777.415	449.766
777.543	457.234
777.671	443.936
777.799	452.043
777.927	457.064
778.055	474.447
778.183	456.170
778.312	426.830
778.440	452.213
778.568	455.000
778.696	444.043
778.824	466.021
778.952	459.021
779.080	438.000
779.208	475.574
779.337	457.404
779.465	450.553
779.593	451.383
779.721	455.340
779.849	451.000
779.977	435.766
780.105	424.617
780.233	448.319
780.362	464.106
780.490	466.532
780.618	443.170
780.746	446.277
780.874	418.851
781.002	432.936
781.130	425.468
781.258	419.234
781.387	429.489
781.515	446.255
781.643	423.830
781.771	459.489
781.899	428.128
782.027	460.660
782.155	431.447
782.283	420.213
782.412	414.553
782.540	426.830
782.668	440.723
782.796	398.383
782.924	438.766
783.052	411.489
783.180	446.723
783.308	408.894
783.437	404.979
783.565	415.915
783.693	415.043
783.821	405.766
783.949	398.511
784.077	418.638
784.205	406.085
784.333	454.043
784.462	383.979
784.590	407.383
784.718	418.936
784.846	389.404
784.974	421.489
785.102	443.574
785.230	400.468
785.358	442.000
785.487	392.830
785.615	404.298
785.743	399.319
785.871	399.936
785.999	391.723
786.127	372.851
786.255	400.617
786.383	425.298
786.512	417.277
786.640	395.298
786.768	408.511
786.896	378.426
787.024	387.064
787.152	388.128
787.280	390.234
787.408	364.957
787.537	397.468
787.665	390.915
787.793	414.404
787.921	389.064
788.049	392.723
788.177	372.277
788.305	376.213
788.433	398.043
788.562	365.383
788.690	365.617
788.818	372.553
788.946	389.894
789.074	369.000
789.202	388.979
789.330	387.106
789.458	373.298
789.587	423.936
789.715	371.468
789.843	377.574
789.971	371.234
790.099	362.255
790.227	380.064
790.355	361.489
790.483	384.681
790.612	378.447
790.740	367.915
790.868	383.851
790.996	372.191
791.124	365.213
791.252	365.660
791.380	368.723
791.508	370.234
791.637	361.021
791.765	349.021
791.893	355.234
792.021	363.085
792.149	359.872
792.277	366.277
792.405	344.638
792.533	374.106
792.662	336.383
792.790	348.511
792.918	378.553
793.046	350.915
793.174	371.957
793.302	356.638
793.430	365.702
793.558	351.766
793.687	356.936
793.815	349.723
793.943	364.170
794.071	362.085
794.199	349.787
794.327	352.702
794.455	417.298
794.583	440.191
794.712	338.979
794.840	347.787
794.968	349.681
795.096	371.255
795.224	333.745
795.352	341.745
795.480	377.574
795.608	350.511
795.737	349.021
795.865	343.553
795.993	331.830
796.121	326.936
796.249	327.745
796.377	353.149
796.505	335.404
796.633	326.000
796.762	332.511
796.890	339.979
797.018	348.660
797.146	325.894
797.274	318.872
797.402	328.085
797.530	349.787
797.658	327.426
797.787	376.128
797.915	324.106
798.043	352.894
798.171	315.170
798.299	327.532
798.427	321.128
798.555	327.638
798.683	309.277
798.812	330.404
798.940	385.362
799.068	317.894
799.196	354.723
799.324	320.085
799.452	328.511
799.580	308.319
799.708	370.617
799.837	305.149
799.965	319.957
800.093	336.957
800.221	294.043
800.349	324.681
800.477	311.255
800.605	323.489
800.733	325.000
800.862	318.064
800.990	352.894
801.118	298.511
801.246	303.000
801.374	319.426
801.502	304.319
801.630	302.043
801.758	318.213
801.887	329.426
802.015	302.851
802.143	296.511
802.271	329.979
802.399	313.809
802.527	298.809
802.655	335.085
802.783	358.532
802.912	308.468
803.040	299.489
803.168	289.404
803.296	288.213
803.424	314.383
803.552	302.255
803.680	305.170
803.808	307.404
803.937	298.362
804.065	290.064
804.193	295.702
804.321	350.085
804.449	281.149
804.577	294.404
804.705	303.638
804.833	329.681
804.962	283.298
805.090	295.064
805.218	305.745
805.346	304.574
805.474	303.213
805.602	316.191
805.730	292.851
805.858	281.319
805.987	300.574
806.115	302.213
806.243	298.766
806.371	326.043
806.499	394.021
806.627	422.362
806.755	390.255
806.883	310.915
807.012	285.489
807.140	318.574
807.268	302.553
807.396	311.277
807.524	274.596
807.652	288.170
807.780	350.511
807.908	282.000
808.037	339.383
808.165	310.745
808.293	293.340
808.421	341.957
808.549	278.468
808.677	286.340
808.805	330.191
808.933	288.319
809.062	307.894
809.190	343.170
809.318	294.234
809.446	284.830
809.574	342.319
809.702	276.426
809.830	293.787
809.958	297.872
810.087	284.638
810.215	300.319
810.343	290.021
810.471	294.681
810.599	277.255
810.727	275.447
810.855	267.213
810.983	270.915
811.112	287.957
811.240	281.489
811.368	292.638
811.496	319.553
811.624	291.234
811.752	274.277
811.880	284.745
812.008	275.426
812.137	292.936
812.265	259.638
812.393	293.298
812.521	300.979
812.649	281.298
812.777	275.723
812.905	300.447
813.033	267.787
813.162	270.277
813.290	268.681
813.418	284.596
813.546	271.936
813.674	270.021
813.802	284.319
813.930	257.872
814.058	268.596
814.187	289.915
814.315	261.702
814.443	281.255
814.571	290.000
814.699	299.106
814.827	268.340
814.955	264.000
815.083	296.766
815.212	289.255
815.340	299.851
815.468	260.447
815.596	270.170
815.724	281.106
815.852	269.681
815.980	260.936
816.108	261.128
816.237	258.234
816.365	275.957
816.493	273.447
816.621	262.383
816.749	269.872
816.877	274.340
817.005	287.723
817.133	283.277
817.262	264.000
817.390	271.745
817.518	262.574
817.646	277.191
817.774	257.681
817.902	258.234
818.030	260.617
818.158	301.298
818.287	275.979
818.415	257.915
818.543	264.596
818.671	283.000
818.799	256.511
818.927	277.532
819.055	278.553
819.183	262.468
819.312	266.106
819.440	261.043
819.568	260.787
819.696	264.043
819.824	281.617
819.952	250.809
820.080	266.085
820.208	262.872
820.337	257.149
820.465	294.000
820.593	259.957
820.721	264.979
820.849	268.830
820.977	263.191
821.105	268.957
821.233	249.085
821.362	277.872
821.490	247.489
821.618	256.149
821.746	254.234
821.874	260.851
822.002	253.830
822.130	261.468
822.258	240.170
822.387	250.660
822.515	272.170
822.643	268.021
822.771	268.702
822.899	263.021
823.027	299.383
823.155	241.851
823.283	242.766
823.412	261.404
823.540	253.000
823.668	303.851
823.796	253.532
823.924	277.830
824.052	287.660
824.180	268.128
824.308	249.298
824.437	240.426
824.565	248.596
824.693	274.043
824.821	263.085
824.949	258.085
825.077	260.383
825.205	288.532
825.333	267.404
825.462	280.362
825.590	252.426
825.718	281.426
825.846	250.574
825.974	244.447
826.102	244.596
826.230	252.851
826.358	256.255
826.487	244.255
826.615	289.021
826.743	236.872
826.871	268.149
826.999	301.043
827.127	251.957
827.255	260.064
827.383	242.532
827.512	270.277
827.640	249.277
827.768	243.128
827.896	257.021
828.024	243.617
828.152	249.596
828.280	252.617
828.408	248.872
828.537	251.894
828.665	256.362
828.793	258.447
828.921	237.319
829.049	267.021
829.177	242.255
829.305	243.532
829.433	255.191
829.562	260.809
829.690	236.872
829.818	272.532
829.946	248.106
830.074	258.830
830.202	266.149
830.330	267.447
830.458	288.702
830.587	249.277
830.715	248.638
830.843	244.000
830.971	257.617
831.099	269.255
831.227	243.574
831.355	245.426
831.483	256.723
831.612	278.021
831.740	242.617
831.868	256.043
831.996	237.936
832.124	238.064
832.252	228.894
832.380	254.745
832.508	296.532
832.637	244.894
832.765	250.170
832.893	278.085
833.021	240.745
833.149	232.000
833.277	248.426
833.405	237.362
833.533	234.511
833.662	242.894
833.790	240.596
833.918	254.936
834.046	284.766
834.174	246.830
834.302	234.745
834.430	231.681
834.558	246.830
834.687	261.532
834.815	231.085
834.943	251.957
835.071	246.255
835.199	244.511
835.327	262.915
835.455	235.596
835.583	271.319
835.712	229.340
835.840	239.213
835.968	241.085
836.096	291.489
836.224	254.915
836.352	232.468
836.480	255.532
836.608	248.787
836.737	235.723
836.865	234.191
836.993	247.191
837.121	245.957
837.249	234.681
837.377	257.383
837.505	247.596
837.633	235.915
837.762	238.149
837.890	268.532
838.018	273.851
838.146	276.702
838.274	254.745
838.402	262.340
838.530	236.191
838.658	225.532
838.787	247.574
838.915	243.404
839.043	229.447
839.171	267.553
839.299	228.872
839.427	237.043
839.555	240.957
839.683	250.702
839.812	261.872
839.940	230.894
840.068	249.532
840.196	248.979
840.324	239.617
840.452	240.723
840.580	274.447
840.708	240.702
840.837	267.319
840.965	233.128
841.093	236.915
841.221	237.979
841.349	243.766
841.477	247.702
841.605	250.298
841.733	240.362
841.862	244.851
841.990	294.574
842.118	220.404
842.246	231.021
842.374	233.915
842.502	221.234
842.630	255.809
842.758	260.851
842.887	228.106
843.015	238.426
843.143	262.043
843.271	239.043
843.399	272.021
843.527	251.447
843.655	222.085
843.783	240.043
843.912	229.085
844.040	267.085
844.168	228.170
844.296	227.362
844.424	223.766
844.552	249.766
844.680	256.234
844.808	258.830
844.937	237.000
845.065	231.979
845.193	257.234
845.321	238.787
845.449	238.979
845.577	230.809
845.705	231.511
845.833	231.149
845.962	248.362
846.090	231.681
846.218	239.447
846.346	248.021
846.474	244.660
846.602	243.191
846.730	269.043
846.858	250.851
846.987	234.000
847.115	229.447
847.243	252.723
847.371	251.787
847.499	247.979
847.627	233.149
847.755	226.936
847.883	237.362
848.012	241.936
848.140	237.787
848.268	253.170
848.396	222.191
848.524	254.574
848.652	213.000
848.780	233.532
848.908	244.319
849.037	229.638
849.165	248.426
849.293	240.872
849.421	256.000
849.549	238.064
849.677	241.468
849.805	243.362
849.933	244.213
850.062	235.447
850.190	231.383
850.318	239.128
850.446	229.234
850.574	229.085
850.702	234.979
850.830	238.277
850.958	247.766
851.087	222.170
851.215	240.170
851.343	228.426
851.471	232.106
851.599	238.021
851.727	242.936
851.855	285.234
851.983	245.809
852.112	235.298
852.240	234.021
852.368	235.277
852.496	228.362
852.624	230.936
852.752	238.915
852.880	216.128
853.008	241.936
853.137	242.574
853.265	246.213
853.393	238.702
853.521	248.298
853.649	243.234
853.777	228.255
853.905	242.170
854.033	231.340
854.162	289.532
854.290	235.255
854.418	221.383
854.546	232.000
854.674	335.234
854.802	230.851
854.930	226.638
855.058	213.553
855.187	221.191
855.315	248.511
855.443	221.894
855.571	227.404
855.699	224.596
855.827	233.106
855.955	230.234
856.083	233.064
856.212	242.298
856.340	226.170
856.468	278.511
856.596	249.957
856.724	236.426
856.852	236.894
856.980	226.809
857.108	243.766
857.237	221.149
857.365	258.426
857.493	230.340
857.621	220.979
857.749	229.426
857.877	241.234
858.005	251.043
858.133	235.383
858.262	231.872
858.390	225.638
858.518	215.915
858.646	222.447
858.774	230.681
858.902	201.723
859.030	229.468
859.158	236.766
859.287	241.340
859.415	257.255
859.543	219.702
859.671	223.830
859.799	251.872
859.927	235.319
860.055	226.915
860.183	238.936
860.312	223.511
860.440	237.702
860.568	232.936
860.696	218.851
860.824	296.553
860.952	277.213
861.080	227.638
861.208	239.894
861.337	238.957
861.465	260.426
861.593	258.766
861.721	228.106
861.849	231.489
861.977	217.553
862.105	239.298
862.233	258.000
862.362	239.021
862.490	251.191
862.618	220.809
862.746	226.255
862.874	222.255
863.002	221.298
863.130	251.617
863.258	238.213
863.387	238.234
863.515	247.894
863.643	239.383
863.771	303.191
863.899	221.426
864.027	221.128
864.155	221.489
864.283	250.128
864.412	229.596
864.540	221.553
864.668	219.638
864.796	231.426
864.924	239.638
865.052	232.468
865.180	222.489
865.308	203.745
865.437	238.596
865.565	236.426
865.693	259.128
865.821	235.468
865.949	258.191
866.077	232.468
866.205	240.468
866.333	248.574
866.462	225.149
866.590	235.447
866.718	242.596
866.846	225.787
866.974	244.511
867.102	251.574
867.230	259.426
867.358	233.106
867.487	228.766
867.615	253.085
867.743	234.404
867.871	240.106
867.999	240.362
868.127	226.404
868.255	279.702
868.383	277.830
868.512	229.255
868.640	229.340
868.768	215.085
868.896	217.787
869.024	255.766
869.152	229.000
869.280	238.830
869.408	259.596
869.537	223.809
869.665	292.894
869.793	223.766
869.921	261.894
870.049	233.362
870.177	232.660
870.305	272.362
870.433	215.064
870.562	244.340
870.690	215.702
870.818	220.085
870.946	233.766
871.074	259.319
871.202	240.426
871.330	249.617
871.458	208.340
871.587	230.574
871.715	233.383
871.843	222.277
871.971	225.638
872.099	229.106
872.227	220.340
872.355	242.936
872.483	240.213
872.612	234.702
872.740	237.723
872.868	231.277
872.996	233.106
873.124	226.298
873.252	233.213
873.380	231.468
873.508	219.149
873.637	244.064
873.765	224.511
873.893	278.340
874.021	237.191
874.149	228.426
874.277	234.596
874.405	224.106
874.533	233.830
874.662	1123.809
874.790	229.617
874.918	267.000
875.046	253.787
875.174	241.106
875.302	211.915
875.430	265.404
875.558	237.298
875.687	244.532
875.815	230.319
875.943	217.957
876.071	237.830
876.199	256.404
876.327	269.851
876.455	233.638
876.583	254.851
876.712	228.617
876.840	239.894
876.968	270.936
877.096	226.298
877.224	216.255
877.352	278.851
877.480	222.319
877.608	235.383
877.737	239.553
877.865	231.021
877.993	246.894
878.121	215.468
878.249	218.660
878.377	225.787
878.505	230.404
878.633	235.085
878.762	232.021
878.890	222.638
879.018	287.553
879.146	238.255
879.274	216.872
879.402	247.468
879.530	237.426
879.658	215.426
879.787	228.511
879.915	230.085
880.043	262.745
880.171	212.532
880.299	239.128
880.427	238.766
880.555	232.489
880.683	253.851
880.812	223.766
880.940	254.894
881.068	216.723
881.196	221.957
881.324	237.064
881.452	220.383
881.580	245.553
881.708	248.957
881.837	243.468
881.965	231.149
882.093	241.532
882.221	218.617
882.349	259.638
882.477	251.660
882.605	235.681
882.733	216.936
882.862	268.213
882.990	240.596
883.118	231.426
883.246	239.298
883.374	230.617
883.502	225.723
883.630	218.085
883.758	230.319
883.887	240.660
884.015	213.681
884.143	225.617
884.271	244.660
884.399	214.894
884.527	229.638
884.655	212.809
884.783	242.149
884.912	243.553
885.040	223.979
885.168	291.340
885.296	220.021
885.424	242.702
885.552	251.277
885.680	231.766
885.808	219.298
885.937	236.213
886.065	236.128
886.193	217.596
886.321	258.617
886.449	222.085
886.577	278.085
886.705	222.170
886.833	217.447
886.962	225.532
887.090	231.830
887.218	233.404
887.346	252.809
887.474	263.043
887.602	235.213
887.730	240.553
887.858	253.362
887.987	223.936
888.115	266.277
888.243	236.426
888.371	238.234
888.499	219.809
888.627	244.213
888.755	239.638
888.883	226.128
889.012	225.426
889.140	235.021
889.268	245.660
889.396	241.745
889.524	234.064
889.652	225.277
889.780	213.766
889.908	255.894
890.037	219.957
890.165	223.191
890.293	252.787
890.421	279.894
890.549	235.191
890.677	231.064
890.805	222.106
890.933	253.702
891.062	232.277
891.190	228.809
891.318	241.128
891.446	235.085
891.574	217.702
891.702	222.745
891.830	228.830
891.958	264.766
892.087	265.447
892.215	241.426
892.343	241.149
892.471	245.574
892.599	229.915
892.727	255.872
892.855	224.298
892.983	218.383
893.112	229.234
893.240	225.894
893.368	265.702
893.496	227.170
893.624	238.255
893.752	292.149
893.880	268.638
894.008	211.702
894.137	239.830
894.265	236.213
894.393	235.574
894.521	226.936
894.649	253.872
894.777	224.894
894.905	215.830
895.033	259.617
895.162	222.660
895.290	263.596
895.418	238.979
895.546	238.787
895.674	306.447
895.802	223.979
895.930	243.149
896.058	209.426
896.187	228.383
896.315	224.383
896.443	221.277
896.571	231.213
896.699	227.660
896.827	241.149
896.955	237.298
897.083	223.936
897.212	262.298
897.340	223.085
897.468	213.766
897.596	225.723
897.724	269.043
897.852	237.085
897.980	237.064
898.108	232.553
898.237	221.340
898.365	222.362
898.493	236.319
898.621	229.149
898.749	233.128
898.877	240.979
899.005	211.979
899.133	230.277
899.262	237.766
899.390	263.021
899.518	223.574
899.646	229.404
899.774	252.149
899.902	309.021
900.030	245.766
900.158	227.170
900.287	246.085
900.415	210.702
900.543	241.426
900.671	234.702
900.799	254.617
900.927	222.383
901.055	218.596
901.183	237.383
901.312	252.426
901.440	248.234
901.568	246.660
901.696	231.787
901.824	239.574
901.952	241.064
902.080	345.404
902.208	264.255
902.337	221.787
902.465	238.553
902.593	234.149
902.721	235.298
902.849	242.830
902.977	244.447
903.105	222.362
903.233	247.830
903.362	229.574
903.490	245.872
903.618	225.957
903.746	246.085
903.874	220.404
904.002	236.000
904.130	243.191
904.258	255.894
904.387	224.255
904.515	245.894
904.643	216.213
904.771	226.043
904.899	245.043
905.027	255.787
905.155	239.234
905.283	230.255
905.412	259.809
905.540	230.340
905.668	234.128
905.796	234.255
905.924	234.362
906.052	232.936
906.180	255.766
906.308	247.213
906.437	268.234
906.565	237.936
906.693	239.106
906.821	222.596
906.949	230.511
907.077	245.596
907.205	238.851
907.333	242.468
907.462	232.957
907.590	225.745
907.718	253.426
907.846	274.277
907.974	226.723
908.102	236.660
908.230	260.000
908.358	268.085
908.487	242.851
908.615	241.511
908.743	242.596
908.871	298.915
908.999	233.638
909.127	263.298
909.255	220.894
909.383	235.298
909.512	273.723
909.640	240.468
909.768	240.532
909.896	287.511
910.024	264.043
910.152	243.872
910.280	288.106
910.408	237.660
910.537	238.553
910.665	274.277
910.793	237.255
910.921	254.340
911.049	231.426
911.177	227.106
911.305	257.447
911.433	249.468
911.562	244.723
911.690	249.574
911.818	298.532
911.946	240.362
912.074	260.894
912.202	270.979
912.330	240.489
912.458	241.298
912.587	254.702
912.715	267.745
912.843	275.277
912.971	258.064
913.099	278.553
913.227	267.085
913.355	249.915
913.483	259.638
913.612	263.489
913.740	381.255
913.868	256.191
