0pol_90_100_at_750.00nm_cut_at_984.50Y_01.dat
24.04.2023
10:48:08
cut middle at Y: 984.50
top cursor: 1008 down cursor: 961 mean of: 47 lines , 2560 datapoints
wavelength(nm)	intensity[arb. units]
585.996	12602.128
586.124	12299.085
586.252	12205.957
586.380	12273.915
586.508	12316.894
586.637	12398.213
586.765	12438.936
586.893	12474.170
587.021	12458.957
587.149	12535.213
587.277	12514.468
587.405	12604.787
587.533	12544.894
587.662	12720.043
587.790	12676.511
587.918	12568.574
588.046	12638.255
588.174	12595.766
588.302	12652.681
588.430	12592.809
588.558	12602.660
588.687	12603.957
588.815	12660.468
588.943	12619.830
589.071	12585.191
589.199	12642.426
589.327	12628.511
589.455	12593.660
589.583	12719.596
589.712	12689.340
589.840	12661.277
589.968	12659.532
590.096	12703.957
590.224	12767.000
590.352	12665.915
590.480	12693.362
590.608	12701.149
590.737	12781.170
590.865	12798.851
590.993	12725.128
591.121	12803.447
591.249	12814.277
591.377	12784.106
591.505	12822.064
591.633	12854.255
591.762	12814.000
591.890	12979.021
592.018	12820.702
592.146	12855.277
592.274	12887.766
592.402	12847.128
592.530	12930.872
592.658	13125.511
592.787	13012.660
592.915	13127.191
593.043	13062.426
593.171	13068.489
593.299	13076.021
593.427	13120.170
593.555	13184.426
593.683	13180.340
593.812	13213.511
593.940	13232.106
594.068	13298.149
594.196	13382.447
594.324	13377.000
594.452	13392.340
594.580	13456.106
594.708	13426.894
594.837	13514.851
594.965	13582.319
595.093	13594.660
595.221	13583.936
595.349	13775.319
595.477	13674.489
595.605	13674.702
595.733	13647.830
595.862	13931.894
595.990	13757.702
596.118	13776.638
596.246	13956.702
596.374	13830.000
596.502	13840.979
596.630	13885.809
596.758	13878.064
596.887	13894.170
597.015	13947.596
597.143	13911.000
597.271	13999.745
597.399	14026.894
597.527	13900.596
597.655	13975.149
597.783	13927.574
597.912	13920.596
598.040	14020.043
598.168	14033.787
598.296	13988.191
598.424	14014.234
598.552	13973.085
598.680	13953.362
598.808	14069.936
598.937	14009.979
599.065	14020.234
599.193	14087.043
599.321	14100.723
599.449	14006.638
599.577	14029.702
599.705	14039.319
599.833	13963.596
599.962	14043.553
600.090	14103.426
600.218	14122.766
600.346	14233.830
600.474	14165.362
600.602	14187.681
600.730	14187.745
600.858	14260.936
600.987	14435.915
601.115	14292.085
601.243	14378.766
601.371	14396.617
601.499	14457.106
601.627	14499.745
601.755	14531.936
601.883	14550.340
602.012	14607.170
602.140	14606.383
602.268	14724.851
602.396	14691.915
602.524	14849.213
602.652	14813.213
602.780	14917.319
602.908	14937.638
603.037	14946.596
603.165	15028.553
603.293	15102.298
603.421	15077.617
603.549	15123.234
603.677	15226.106
603.805	15266.809
603.933	15328.298
604.062	15453.085
604.190	15412.851
604.318	15501.809
604.446	15465.553
604.574	15572.660
604.702	15648.085
604.830	15650.787
604.958	15622.596
605.087	15761.277
605.215	15798.277
605.343	15775.340
605.471	15856.000
605.599	15892.532
605.727	15913.851
605.855	15947.830
605.983	15954.447
606.112	15971.894
606.240	16016.404
606.368	16054.191
606.496	16281.660
606.624	16146.362
606.752	16187.553
606.880	16287.660
607.008	16399.489
607.137	16394.234
607.265	16156.043
607.393	16230.277
607.521	16349.106
607.649	16331.043
607.777	16248.574
607.905	16307.000
608.033	16272.064
608.162	16275.404
608.290	16296.128
608.418	16320.489
608.546	16349.191
608.674	16291.936
608.802	16341.255
608.930	16309.085
609.058	16341.021
609.187	16407.851
609.315	16439.319
609.443	16385.064
609.571	16500.468
609.699	16417.596
609.827	16512.128
609.955	16405.383
610.083	16411.426
610.212	16389.596
610.340	16470.532
610.468	16551.000
610.596	16487.660
610.724	16560.787
610.852	16549.170
610.980	16548.723
611.108	16659.191
611.237	16555.787
611.365	16633.362
611.493	16585.596
611.621	16622.128
611.749	16680.149
611.877	16746.574
612.005	16765.723
612.133	16810.787
612.262	16821.574
612.390	16857.000
612.518	16919.979
612.646	17009.766
612.774	16999.043
612.902	17005.468
613.030	17076.362
613.158	17245.702
613.287	17225.638
613.415	17257.809
613.543	17209.872
613.671	17158.128
613.799	17363.213
613.927	17250.383
614.055	17333.979
614.183	17526.957
614.312	17347.000
614.440	17532.447
614.568	17469.872
614.696	17584.000
614.824	17779.191
614.952	17692.894
615.080	17700.617
615.208	17807.277
615.337	17828.766
615.465	17904.383
615.593	18069.957
615.721	18182.596
615.849	18264.617
615.977	18298.617
616.105	18285.383
616.233	18241.234
616.362	18328.915
616.490	18422.723
616.618	18427.660
616.746	18488.383
616.874	18530.723
617.002	18583.085
617.130	18590.766
617.258	18698.532
617.387	18664.915
617.515	18723.170
617.643	18698.617
617.771	18736.915
617.899	18791.638
618.027	18752.064
618.155	18909.085
618.283	18846.915
618.412	18880.191
618.540	18978.596
618.668	18911.021
618.796	18949.043
618.924	19086.894
619.052	19053.723
619.180	19053.128
619.308	19101.915
619.437	19090.255
619.565	19098.085
619.693	19074.957
619.821	19132.064
619.949	19138.000
620.077	19225.447
620.205	19268.468
620.333	19276.426
620.462	19314.745
620.590	19379.021
620.718	19280.489
620.846	19328.660
620.974	19448.851
621.102	19369.574
621.230	19385.191
621.358	19521.979
621.487	19438.468
621.615	19481.851
621.743	19562.532
621.871	19496.766
621.999	19589.787
622.127	19549.532
622.255	19539.340
622.383	19558.021
622.512	19556.149
622.640	19719.106
622.768	19606.277
622.896	19557.319
623.024	19600.340
623.152	19716.064
623.280	19705.383
623.408	19696.553
623.537	19759.766
623.665	19715.191
623.793	19765.213
623.921	19796.702
624.049	19811.043
624.177	19820.000
624.305	19941.702
624.433	19928.085
624.562	20012.511
624.690	19990.106
624.818	20013.383
624.946	20149.574
625.074	20063.702
625.202	20071.660
625.330	20044.872
625.458	20140.702
625.587	20138.404
625.715	20137.532
625.843	20255.468
625.971	20214.787
626.099	20244.511
626.227	20255.872
626.355	20263.745
626.483	20431.723
626.612	20320.511
626.740	20392.340
626.868	20509.340
626.996	20556.830
627.124	20494.426
627.252	20563.553
627.380	20703.894
627.508	20631.362
627.637	20571.298
627.765	20660.936
627.893	20820.447
628.021	20859.277
628.149	21118.809
628.277	21265.894
628.405	21251.702
628.533	21036.617
628.662	21055.723
628.790	21099.298
628.918	21211.681
629.046	21260.745
629.174	21393.745
629.302	21688.511
629.430	21521.191
629.558	21464.170
629.687	21542.128
629.815	21599.128
629.943	21605.106
630.071	21684.915
630.199	21834.277
630.327	21846.809
630.455	21920.468
630.583	22050.106
630.712	21986.915
630.840	22063.064
630.968	22140.383
631.096	22144.426
631.224	22165.085
631.352	22180.277
631.480	22220.043
631.608	22386.787
631.737	22484.404
631.865	22589.851
631.993	22462.936
632.121	22635.596
632.249	22640.745
632.377	22624.851
632.505	22676.681
632.633	22580.404
632.762	22673.255
632.890	22774.915
633.018	22634.915
633.146	22823.766
633.274	22783.553
633.402	22844.638
633.530	22850.596
633.658	22962.957
633.787	22859.936
633.915	22925.277
634.043	22892.404
634.171	22939.660
634.299	22906.468
634.427	22954.255
634.555	23001.787
634.683	22938.234
634.812	22914.043
634.940	22973.979
635.068	22999.255
635.196	22970.426
635.324	23021.085
635.452	23073.745
635.580	22988.277
635.708	22974.043
635.837	23064.830
635.965	23048.617
636.093	22913.149
636.221	22984.702
636.349	23101.936
636.477	22979.957
636.605	23140.043
636.733	22958.383
636.862	23023.170
636.990	22994.787
637.118	23133.277
637.246	23130.851
637.374	23071.000
637.502	23102.553
637.630	23086.936
637.758	23109.851
637.887	23079.000
638.015	23052.149
638.143	23157.872
638.271	23114.894
638.399	23140.021
638.527	23122.979
638.655	23221.915
638.783	23373.404
638.912	23238.255
639.040	23274.234
639.168	23299.468
639.296	23259.596
639.424	23465.830
639.552	23354.128
639.680	23543.426
639.808	23457.128
639.937	23449.362
640.065	23528.298
640.193	23615.340
640.321	23652.234
640.449	23656.489
640.577	23737.702
640.705	23820.745
640.833	23879.660
640.962	23813.915
641.090	23859.213
641.218	23862.894
641.346	23978.170
641.474	24066.681
641.602	24103.979
641.730	24204.447
641.858	24263.447
641.987	24253.489
642.115	24277.532
642.243	24387.128
642.371	24453.447
642.499	24531.213
642.627	24634.255
642.755	24666.383
642.883	24723.128
643.012	24750.894
643.140	24827.830
643.268	24847.404
643.396	24913.596
643.524	25128.574
643.652	25054.340
643.780	25115.894
643.908	25182.426
644.037	25254.447
644.165	25281.660
644.293	25303.787
644.421	25422.319
644.549	25517.149
644.677	25409.957
644.805	25474.255
644.933	25447.298
645.062	25615.234
645.190	25591.234
645.318	25743.404
645.446	25642.723
645.574	25771.787
645.702	25736.787
645.830	25962.809
645.958	25847.191
646.087	26059.638
646.215	25838.596
646.343	26110.957
646.471	25970.553
646.599	26067.660
646.727	26056.170
646.855	26036.681
646.983	26117.915
647.112	26098.809
647.240	26215.000
647.368	26080.404
647.496	26221.596
647.624	26137.021
647.752	26156.191
647.880	26200.638
648.008	26184.532
648.137	26262.128
648.265	26251.191
648.393	26256.170
648.521	26264.660
648.649	26260.064
648.777	26245.362
648.905	26258.723
649.033	26226.426
649.162	26286.021
649.290	26312.362
649.418	26248.617
649.546	26405.426
649.674	26359.979
649.802	26286.936
649.930	26527.447
650.058	26376.277
650.187	26332.574
650.315	26401.170
650.443	26447.617
650.571	26470.064
650.699	26481.426
650.827	26488.660
650.955	26525.979
651.083	26542.489
651.212	26629.532
651.340	26650.277
651.468	26568.383
651.596	26558.872
651.724	26554.702
651.852	26620.809
651.980	26537.128
652.108	26693.468
652.237	26727.766
652.365	26746.787
652.493	26716.596
652.621	26693.532
652.749	26805.255
652.877	26766.511
653.005	26770.723
653.133	26829.149
653.262	26845.234
653.390	26921.511
653.518	26956.468
653.646	26928.383
653.774	27109.000
653.902	26943.298
654.030	26990.128
654.158	27049.723
654.287	27031.830
654.415	27043.021
654.543	27134.468
654.671	27020.277
654.799	27113.851
654.927	27098.043
655.055	27123.340
655.183	27194.426
655.312	27201.106
655.440	27286.787
655.568	27205.681
655.696	27290.787
655.824	27419.830
655.952	27310.809
656.080	27315.617
656.208	27385.170
656.337	27338.319
656.465	27380.000
656.593	27371.043
656.721	27365.149
656.849	27468.511
656.977	27379.234
657.105	27407.809
657.233	27354.191
657.362	27444.468
657.490	27399.723
657.618	27447.638
657.746	27506.830
657.874	27449.915
658.002	27498.064
658.130	27451.681
658.258	27460.255
658.387	27483.553
658.515	27481.064
658.643	27523.617
658.771	27560.596
658.899	27610.830
659.027	27627.085
659.155	27618.596
659.283	27737.043
659.412	27624.489
659.540	27730.043
659.668	27623.787
659.796	27685.723
659.924	27753.511
660.052	27727.383
660.180	27677.319
660.308	27689.809
660.437	27797.979
660.565	27806.660
660.693	27819.936
660.821	27817.894
660.949	27797.340
661.077	27899.596
661.205	27906.468
661.333	27941.064
661.462	28018.319
661.590	27978.532
661.718	28126.340
661.846	28050.851
661.974	28186.021
662.102	28032.234
662.230	28105.851
662.358	28079.170
662.487	28159.596
662.615	28140.574
662.743	28250.468
662.871	28242.043
662.999	28254.745
663.127	28207.149
663.255	28419.596
663.383	28452.957
663.512	28392.128
663.640	28448.043
663.768	28496.809
663.896	28531.809
664.024	28650.170
664.152	28656.851
664.280	28824.766
664.408	28727.957
664.537	28731.340
664.665	28785.638
664.793	28682.723
664.921	28779.213
665.049	28820.128
665.177	28918.553
665.305	28931.511
665.433	28886.447
665.562	28968.574
665.690	28982.128
665.818	29211.638
665.946	29109.447
666.074	29047.574
666.202	29128.532
666.330	29197.191
666.458	29161.830
666.587	29238.362
666.715	29337.383
666.843	29291.085
666.971	29336.851
667.099	29334.234
667.227	29380.809
667.355	29395.511
667.483	29421.660
667.612	29512.489
667.740	29464.617
667.868	29636.064
667.996	29641.553
668.124	29612.936
668.252	29620.830
668.380	29606.681
668.508	29620.362
668.637	29675.362
668.765	29710.064
668.893	29733.191
669.021	29681.340
669.149	29790.723
669.277	29840.979
669.405	29747.851
669.533	29786.234
669.662	30066.532
669.790	29908.404
669.918	29912.383
670.046	29784.830
670.174	29932.638
670.302	29931.085
670.430	29861.000
670.558	29860.766
670.687	29783.574
670.815	29854.915
670.943	29873.043
671.071	29745.340
671.199	29792.106
671.327	29785.851
671.455	29752.404
671.583	29752.766
671.712	29842.979
671.840	29786.596
671.968	29680.298
672.096	29612.851
672.224	29661.596
672.352	29762.574
672.480	29661.170
672.608	29598.936
672.737	29444.000
672.865	29700.809
672.993	29429.106
673.121	29449.319
673.249	29382.723
673.377	29407.553
673.505	29355.277
673.633	29288.255
673.762	29260.362
673.890	29322.426
674.018	29447.128
674.146	29171.872
674.274	29126.404
674.402	29211.638
674.530	29071.851
674.658	29027.894
674.787	28988.213
674.915	28895.766
675.043	28993.702
675.171	28938.851
675.299	28865.340
675.427	28850.979
675.555	28652.468
675.683	28676.213
675.812	28694.000
675.940	28664.404
676.068	28568.064
676.196	28489.404
676.324	28519.532
676.452	28471.596
676.580	28424.149
676.708	28372.532
676.837	28372.957
676.965	28390.532
677.093	28301.915
677.221	28223.085
677.349	28263.298
677.477	28328.277
677.605	28075.787
677.733	28158.170
677.862	28050.255
677.990	28010.000
678.118	27959.979
678.246	27918.255
678.374	28022.106
678.502	27898.617
678.630	27993.383
678.758	27929.553
678.887	27771.043
679.015	27887.660
679.143	27803.149
679.271	27821.362
679.399	27837.468
679.527	27768.489
679.655	27684.447
679.783	27759.085
679.912	27762.851
680.040	27662.128
680.168	27703.404
680.296	27673.915
680.424	27577.809
680.552	27649.277
680.680	27652.787
680.808	27577.638
680.937	27535.447
681.065	27520.766
681.193	27536.979
681.321	27549.213
681.449	27471.298
681.577	27516.894
681.705	27515.660
681.833	27442.596
681.962	27429.277
682.090	27529.532
682.218	27408.511
682.346	27482.809
682.474	27384.851
682.602	27469.362
682.730	27439.851
682.858	27326.191
682.987	27354.702
683.115	27419.085
683.243	27303.596
683.371	27291.830
683.499	27369.532
683.627	27340.957
683.755	27362.340
683.883	27382.957
684.012	27303.106
684.140	27306.191
684.268	27224.660
684.396	27237.191
684.524	27287.872
684.652	27298.000
684.780	27218.872
684.908	27247.745
685.037	27261.660
685.165	27132.170
685.293	27138.574
685.421	27159.340
685.549	27098.872
685.677	27090.234
685.805	27151.915
685.933	27130.702
686.062	27000.149
686.190	26942.277
686.318	27012.638
686.446	26947.468
686.574	26879.574
686.702	26963.255
686.830	26868.511
686.958	26740.915
687.087	26764.106
687.215	26764.830
687.343	26726.766
687.471	26659.021
687.599	26586.957
687.727	26777.191
687.855	26550.574
687.983	26636.298
688.112	26620.596
688.240	26500.809
688.368	26420.574
688.496	26351.702
688.624	26404.298
688.752	26313.851
688.880	26308.255
689.008	26177.064
689.137	26157.957
689.265	26049.128
689.393	26057.979
689.521	25975.660
689.649	25943.681
689.777	25826.447
689.905	25815.617
690.033	25771.617
690.162	25739.596
690.290	25615.851
690.418	25575.106
690.546	25623.340
690.674	25467.447
690.802	25377.830
690.930	25307.447
691.058	25299.681
691.187	25117.085
691.315	25085.596
691.443	25115.043
691.571	25002.426
691.699	24945.723
691.827	24919.979
691.955	24847.468
692.083	24750.702
692.212	24760.426
692.340	24660.872
692.468	24616.298
692.596	24566.809
692.724	24577.383
692.852	24396.085
692.980	24389.255
693.108	24317.489
693.237	24189.936
693.365	24112.234
693.493	24048.957
693.621	23890.553
693.749	23876.830
693.877	23838.468
694.005	23844.596
694.133	23724.085
694.262	23657.830
694.390	23574.298
694.518	23475.894
694.646	23426.979
694.774	23380.766
694.902	23472.064
695.030	23316.766
695.158	23147.340
695.287	23171.149
695.415	23032.021
695.543	22882.489
695.671	23074.404
695.799	22913.255
695.927	22845.021
696.055	22783.809
696.183	22678.915
696.312	22618.170
696.440	22727.340
696.568	22525.830
696.696	22570.723
696.824	22362.766
696.952	22329.787
697.080	22325.915
697.208	22204.553
697.337	22158.128
697.465	22039.660
697.593	21986.809
697.721	21978.255
697.849	21915.213
697.977	21836.830
698.105	21809.936
698.233	21706.234
698.362	21698.404
698.490	21583.936
698.618	21546.213
698.746	21485.468
698.874	21435.170
699.002	21505.298
699.130	21269.298
699.258	21223.128
699.387	21156.681
699.515	21147.574
699.643	21075.043
699.771	21047.489
699.899	20849.106
700.027	20852.191
700.155	20750.128
700.283	20683.340
700.412	20676.362
700.540	20485.617
700.668	20510.298
700.796	20378.340
700.924	20292.340
701.052	20255.809
701.180	20279.979
701.308	20125.191
701.437	19949.681
701.565	19949.085
701.693	19787.191
701.821	19795.468
701.949	19772.383
702.077	19658.851
702.205	19507.617
702.333	19430.404
702.462	19314.660
702.590	19267.213
702.718	19216.043
702.846	19073.957
702.974	18999.426
703.102	18977.064
703.230	18936.255
703.358	18767.936
703.487	18627.915
703.615	18741.340
703.743	18500.830
703.871	18411.660
703.999	18421.511
704.127	18365.319
704.255	18107.681
704.383	18185.319
704.512	17993.511
704.640	17939.362
704.768	17748.511
704.896	17791.596
705.024	17585.894
705.152	17650.766
705.280	17536.043
705.408	17388.979
705.537	17329.574
705.665	17200.362
705.793	17184.106
705.921	17134.787
706.049	16980.149
706.177	16832.830
706.305	16843.809
706.433	16760.383
706.562	16679.511
706.690	16576.745
706.818	16469.298
706.946	16647.277
707.074	16376.979
707.202	16300.660
707.330	16224.043
707.458	16149.298
707.587	16003.404
707.715	15931.064
707.843	15977.915
707.971	15916.979
708.099	15837.149
708.227	15693.298
708.355	15611.532
708.483	15497.872
708.612	15447.021
708.740	15436.681
708.868	15439.787
708.996	15244.106
709.124	15237.851
709.252	15173.383
709.380	15071.638
709.508	15057.234
709.637	14943.340
709.765	14854.426
709.893	14869.617
710.021	14794.936
710.149	14711.532
710.277	14620.319
710.405	14542.702
710.533	14526.362
710.662	14422.894
710.790	14382.255
710.918	14384.128
711.046	14363.468
711.174	14210.426
711.302	14179.660
711.430	14283.638
711.558	14031.617
711.687	13989.191
711.815	13954.660
711.943	13973.085
712.071	13866.383
712.199	13841.128
712.327	13719.702
712.455	13666.872
712.583	13693.915
712.712	13552.766
712.840	13561.489
712.968	13443.681
713.096	13492.255
713.224	13319.553
713.352	13318.106
713.480	13243.085
713.608	13215.064
713.737	13208.617
713.865	13138.723
713.993	13159.957
714.121	12970.064
714.249	12950.638
714.377	13019.766
714.505	12902.255
714.633	12947.362
714.762	12840.468
714.890	12704.000
715.018	12670.809
715.146	12614.404
715.274	12613.085
715.402	12663.128
715.530	12544.000
715.658	12433.894
715.787	12344.043
715.915	12470.915
716.043	12264.936
716.171	12272.043
716.299	12258.447
716.427	12136.170
716.555	12074.830
716.683	12022.277
716.812	11938.319
716.940	11931.298
717.068	11749.170
717.196	11924.340
717.324	11791.574
717.452	11725.830
717.580	11595.277
717.708	11579.638
717.837	11545.809
717.965	11418.404
718.093	11349.553
718.221	11302.702
718.349	11325.170
718.477	11268.660
718.605	11233.362
718.733	11103.596
718.862	11029.128
718.990	10998.489
719.118	11005.106
719.246	10883.043
719.374	10909.702
719.502	10805.660
719.630	10903.957
719.758	10658.532
719.887	10654.277
720.015	10736.085
720.143	10469.511
720.271	10419.936
720.399	10392.809
720.527	10391.489
720.655	10306.915
720.783	10280.255
720.912	10156.213
721.040	10101.213
721.168	10004.213
721.296	9983.085
721.424	9914.468
721.552	9780.170
721.680	9753.660
721.808	9782.064
721.937	9710.170
722.065	9738.362
722.193	9684.447
722.321	9484.255
722.449	9449.340
722.577	9400.660
722.705	9324.872
722.833	9328.809
722.962	9235.617
723.090	9148.574
723.218	9040.766
723.346	9031.809
723.474	8960.404
723.602	9058.553
723.730	8957.021
723.858	8981.191
723.987	8811.766
724.115	8828.851
724.243	8667.064
724.371	8671.106
724.499	8624.809
724.627	8474.021
724.755	8405.979
724.883	8443.532
725.012	8356.319
725.140	8354.404
725.268	8252.936
725.396	8126.043
725.524	8127.553
725.652	8085.915
725.780	8039.085
725.908	8033.191
726.037	8068.170
726.165	7876.787
726.293	7798.149
726.421	7767.915
726.549	7706.532
726.677	7656.915
726.805	7604.872
726.933	7569.447
727.062	7554.851
727.190	7520.596
727.318	7388.574
727.446	7399.574
727.574	7356.915
727.702	7424.128
727.830	7246.957
727.958	7271.851
728.087	7198.617
728.215	7244.979
728.343	7159.723
728.471	7043.404
728.599	7044.532
728.727	7083.128
728.855	6887.957
728.983	6890.191
729.112	6864.830
729.240	6768.149
729.368	6792.617
729.496	6737.957
729.624	6689.574
729.752	6613.426
729.880	6643.255
730.008	6557.255
730.137	6502.553
730.265	6642.362
730.393	6454.702
730.521	6507.234
730.649	6394.213
730.777	6364.489
730.905	6332.596
731.033	6364.298
731.162	6465.064
731.290	6331.489
731.418	6411.979
731.546	6326.979
731.674	6152.149
731.802	6185.851
731.930	6027.213
732.058	5975.128
732.187	5929.106
732.315	5921.532
732.443	5897.106
732.571	6043.851
732.699	5910.277
732.827	5853.915
732.955	5757.340
733.083	5728.149
733.212	5802.723
733.340	5766.915
733.468	5752.745
733.596	5626.021
733.724	5626.234
733.852	5547.340
733.980	5532.170
734.108	5693.170
734.237	5596.894
734.365	5552.043
734.493	5423.426
734.621	5382.489
734.749	5414.298
734.877	5366.191
735.005	5391.957
735.133	5330.915
735.262	5329.553
735.390	5210.957
735.518	5345.574
735.646	5149.043
735.774	5131.085
735.902	5120.298
736.030	5073.085
736.158	5101.128
736.287	4986.872
736.415	5198.106
736.543	4972.191
736.671	4947.851
736.799	4927.894
736.927	4949.213
737.055	4894.383
737.183	4960.702
737.312	4893.915
737.440	4815.660
737.568	4799.447
737.696	4744.915
737.824	4756.681
737.952	4719.404
738.080	4690.660
738.208	4666.787
738.337	4660.043
738.465	4654.787
738.593	4550.574
738.721	4510.617
738.849	4515.574
738.977	4474.830
739.105	4510.574
739.233	4424.638
739.362	4404.745
739.490	4339.468
739.618	4332.894
739.746	4299.298
739.874	4434.574
740.002	4397.957
740.130	4307.085
740.258	4186.617
740.387	4153.128
740.515	4286.787
740.643	4096.277
740.771	4156.191
740.899	4105.191
741.027	4111.574
741.155	4166.723
741.283	3979.340
741.412	3965.702
741.540	3957.085
741.668	4038.404
741.796	4037.787
741.924	3964.362
742.052	3848.085
742.180	3977.745
742.308	3812.043
742.437	3756.426
742.565	3894.553
742.693	3927.447
742.821	3794.702
742.949	3735.128
743.077	3686.447
743.205	3621.085
743.333	3649.021
743.462	3611.000
743.590	3622.596
743.718	3508.064
743.846	3513.723
743.974	3529.000
744.102	3643.064
744.230	3515.532
744.358	3440.170
744.487	3394.255
744.615	3417.489
744.743	3349.660
744.871	3325.596
744.999	3397.213
745.127	3335.617
745.255	3274.170
745.383	3287.511
745.512	3288.319
745.640	3165.213
745.768	3188.149
745.896	3218.043
746.024	3114.404
746.152	3121.723
746.280	3074.830
746.408	3152.255
746.537	3171.447
746.665	3043.298
746.793	3089.872
746.921	2971.617
747.049	3142.447
747.177	3016.681
747.305	2992.553
747.433	2976.851
747.562	2908.872
747.690	2917.319
747.818	2931.787
747.946	2822.574
748.074	2926.723
748.202	2862.213
748.330	2922.362
748.458	2767.617
748.587	2765.191
748.715	2706.149
748.843	2769.489
748.971	2728.702
749.099	2734.489
749.227	2703.809
749.355	2641.745
749.483	2623.404
749.612	2672.809
749.740	2666.298
749.868	2645.830
749.996	2636.213
750.124	2551.021
750.252	2595.234
750.380	2565.319
750.508	2563.234
750.637	2550.383
750.765	2587.319
750.893	2529.021
751.021	2531.702
751.149	2645.426
751.277	2552.234
751.405	2560.319
751.533	2579.894
751.662	2516.787
751.790	2537.787
751.918	2487.617
752.046	2468.043
752.174	2433.362
752.302	2540.043
752.430	2434.404
752.558	2395.723
752.687	2397.596
752.815	2402.277
752.943	2356.596
753.071	2345.468
753.199	2345.191
753.327	2355.681
753.455	2342.723
753.583	2300.213
753.712	2310.894
753.840	2287.766
753.968	2271.085
754.096	2272.702
754.224	2211.319
754.352	2226.234
754.480	2219.447
754.608	2177.128
754.737	2179.000
754.865	2221.468
754.993	2152.745
755.121	2146.702
755.249	2187.979
755.377	2136.149
755.505	2116.681
755.633	2143.106
755.762	2082.553
755.890	2125.234
756.018	2109.851
756.146	2065.872
756.274	2039.340
756.402	2033.000
756.530	2011.447
756.658	2010.830
756.787	2012.915
756.915	1941.170
757.043	1982.553
757.171	1949.000
757.299	1930.106
757.427	1903.000
757.555	1888.404
757.683	1942.638
757.812	1868.511
757.940	1856.000
758.068	1840.660
758.196	1850.319
758.324	1813.511
758.452	1903.702
758.580	1771.191
758.708	1819.064
758.837	1766.106
758.965	1857.362
759.093	1741.894
759.221	1709.809
759.349	1725.043
759.477	1686.936
759.605	1694.617
759.733	1679.532
759.862	1675.936
759.990	1653.298
760.118	1664.191
760.246	1630.213
760.374	1632.128
760.502	1635.404
760.630	1623.234
760.758	1593.149
760.887	1556.936
761.015	1572.043
761.143	1534.851
761.271	1541.915
761.399	1511.872
761.527	1524.149
761.655	1513.894
761.783	1488.021
761.912	1492.021
762.040	1464.319
762.168	1497.191
762.296	1455.000
762.424	1451.426
762.552	1435.702
762.680	1488.447
762.808	1391.936
762.937	1419.255
763.065	1457.128
763.193	1431.638
763.321	1378.702
763.449	1357.574
763.577	1364.809
763.705	1349.043
763.833	1419.340
763.962	1320.064
764.090	1307.766
764.218	1338.426
764.346	1314.957
764.474	1276.447
764.602	1298.851
764.730	1273.170
764.858	1289.298
764.987	1271.787
765.115	1301.021
765.243	1250.957
765.371	1245.277
765.499	1207.106
765.627	1222.447
765.755	1217.830
765.883	1230.149
766.012	1220.064
766.140	1181.000
766.268	1193.872
766.396	1172.809
766.524	1173.809
766.652	1175.298
766.780	1166.936
766.908	1158.000
767.037	1156.021
767.165	1155.553
767.293	1192.681
767.421	1132.277
767.549	1131.362
767.677	1122.787
767.805	1112.000
767.933	1125.489
768.062	1130.830
768.190	1104.128
768.318	1092.298
768.446	1116.830
768.574	1120.511
768.702	1099.489
768.830	1082.957
768.958	1068.809
769.087	1051.255
769.215	1048.830
769.343	1055.723
769.471	1031.745
769.599	1076.213
769.727	1064.809
769.855	1034.340
769.983	1012.702
770.112	1008.957
770.240	1001.170
770.368	1025.085
770.496	981.702
770.624	996.277
770.752	1013.957
770.880	1016.617
771.008	993.468
771.137	988.213
771.265	1000.936
771.393	995.468
771.521	976.340
771.649	957.468
771.777	961.149
771.905	954.660
772.033	960.617
772.162	975.191
772.290	945.723
772.418	993.957
772.546	944.830
772.674	925.872
772.802	948.064
772.930	966.809
773.058	914.766
773.187	928.191
773.315	918.936
773.443	918.362
773.571	918.468
773.699	914.809
773.827	882.277
773.955	924.745
774.083	906.255
774.212	888.085
774.340	913.255
774.468	878.617
774.596	881.319
774.724	880.191
774.852	877.085
774.980	867.447
775.108	863.064
775.237	869.234
775.365	857.468
775.493	861.596
775.621	858.128
775.749	843.021
775.877	835.553
776.005	848.043
776.133	858.809
776.262	839.787
776.390	811.191
776.518	867.617
776.646	812.787
776.774	833.277
776.902	830.723
777.030	811.170
777.158	820.936
777.287	823.404
777.415	778.149
777.543	796.255
777.671	786.617
777.799	782.766
777.927	791.106
778.055	799.660
778.183	777.340
778.312	743.532
778.440	764.957
778.568	773.106
778.696	762.213
778.824	766.447
778.952	758.426
779.080	737.617
779.208	770.596
779.337	756.681
779.465	755.085
779.593	747.149
779.721	758.809
779.849	750.149
779.977	724.574
780.105	711.085
780.233	744.213
780.362	761.830
780.490	745.319
780.618	701.553
780.746	726.021
780.874	689.745
781.002	709.617
781.130	688.532
781.258	683.043
781.387	695.511
781.515	718.617
781.643	687.362
781.771	728.362
781.899	677.000
782.027	728.447
782.155	696.596
782.283	681.340
782.412	654.787
782.540	677.596
782.668	694.681
782.796	639.638
782.924	681.809
783.052	648.872
783.180	683.191
783.308	652.426
783.437	650.085
783.565	660.617
783.693	651.638
783.821	646.617
783.949	630.957
784.077	651.617
784.205	642.000
784.333	685.277
784.462	605.383
784.590	631.872
784.718	634.596
784.846	616.660
784.974	643.532
785.102	656.787
785.230	621.447
785.358	652.532
785.487	608.085
785.615	618.468
785.743	597.021
785.871	608.213
785.999	603.553
786.127	569.915
786.255	607.383
786.383	611.149
786.512	610.787
786.640	590.043
786.768	597.660
786.896	575.191
787.024	574.021
787.152	583.489
787.280	582.809
787.408	554.489
787.537	581.149
787.665	569.872
787.793	603.447
787.921	571.362
788.049	562.468
788.177	551.532
788.305	546.447
788.433	581.149
788.562	538.234
788.690	538.787
788.818	554.255
788.946	555.936
789.074	547.128
789.202	551.915
789.330	552.106
789.458	539.702
789.587	585.872
789.715	538.511
789.843	536.383
789.971	528.213
790.099	525.936
790.227	535.681
790.355	523.723
790.483	540.447
790.612	523.511
790.740	515.277
790.868	539.064
790.996	529.298
791.124	506.830
791.252	513.574
791.380	525.319
791.508	524.170
791.637	509.404
791.765	502.064
791.893	503.787
792.021	503.383
792.149	494.638
792.277	502.277
792.405	478.702
792.533	513.064
792.662	474.702
792.790	485.489
792.918	498.085
793.046	484.574
793.174	506.213
793.302	484.170
793.430	495.191
793.558	474.319
793.687	482.447
793.815	477.277
793.943	491.979
794.071	498.383
794.199	473.404
794.327	473.277
794.455	541.596
794.583	571.426
794.712	455.532
794.840	463.872
794.968	471.447
795.096	483.766
795.224	447.915
795.352	446.979
795.480	485.915
795.608	467.596
795.737	466.574
795.865	447.340
795.993	442.723
796.121	437.851
796.249	447.191
796.377	452.277
796.505	442.617
796.633	427.255
796.762	429.745
796.890	446.340
797.018	448.957
797.146	431.894
797.274	414.298
797.402	430.702
797.530	432.511
797.658	426.553
797.787	469.702
797.915	436.979
798.043	445.213
798.171	410.064
798.299	427.574
798.427	404.149
798.555	424.830
798.683	394.213
798.812	410.809
798.940	467.489
799.068	411.426
799.196	452.426
799.324	414.447
799.452	414.638
799.580	396.064
799.708	458.000
799.837	391.702
799.965	391.106
800.093	422.213
800.221	376.255
800.349	402.213
800.477	395.745
800.605	403.553
800.733	400.766
800.862	386.574
800.990	429.851
801.118	367.085
801.246	376.894
801.374	393.532
801.502	387.128
801.630	377.787
801.758	385.128
801.887	401.447
802.015	364.638
802.143	366.894
802.271	396.617
802.399	377.404
802.527	365.170
802.655	402.638
802.783	421.660
802.912	373.532
803.040	370.319
803.168	359.638
803.296	350.149
803.424	375.745
803.552	361.617
803.680	368.404
803.808	369.447
803.937	365.681
804.065	352.213
804.193	362.596
804.321	405.872
804.449	346.979
804.577	353.191
804.705	362.128
804.833	382.617
804.962	347.830
805.090	348.447
805.218	361.638
805.346	355.532
805.474	359.617
805.602	373.234
805.730	344.745
805.858	342.404
805.987	350.766
806.115	339.894
806.243	346.532
806.371	380.149
806.499	446.830
806.627	473.255
806.755	440.957
806.883	360.277
807.012	327.319
807.140	365.894
807.268	350.383
807.396	350.532
807.524	322.553
807.652	333.191
807.780	396.404
807.908	327.234
808.037	380.000
808.165	353.979
808.293	328.745
808.421	387.191
808.549	326.957
808.677	330.851
808.805	366.234
808.933	335.638
809.062	346.936
809.190	384.702
809.318	323.447
809.446	327.085
809.574	378.553
809.702	315.319
809.830	336.085
809.958	335.277
810.087	325.468
810.215	346.894
810.343	336.000
810.471	337.489
810.599	317.298
810.727	324.830
810.855	303.340
810.983	315.723
811.112	325.383
811.240	313.830
811.368	324.872
811.496	361.468
811.624	326.936
811.752	310.085
811.880	319.830
812.008	301.128
812.137	328.809
812.265	295.000
812.393	327.511
812.521	330.553
812.649	316.043
812.777	308.553
812.905	342.681
813.033	297.383
813.162	295.277
813.290	301.702
813.418	317.638
813.546	302.064
813.674	299.213
813.802	311.915
813.930	290.936
814.058	296.745
814.187	308.660
814.315	297.766
814.443	307.468
814.571	320.298
814.699	320.489
814.827	296.660
814.955	294.383
815.083	331.596
815.212	316.596
815.340	331.426
815.468	288.745
815.596	299.851
815.724	311.638
815.852	288.021
815.980	294.043
816.108	292.787
816.237	287.723
816.365	300.638
816.493	301.362
816.621	293.787
816.749	295.830
816.877	306.213
817.005	309.553
817.133	303.574
817.262	281.532
817.390	289.149
817.518	283.128
817.646	297.426
817.774	280.596
817.902	289.277
818.030	287.106
818.158	316.894
818.287	303.809
818.415	275.000
818.543	290.149
818.671	307.894
818.799	290.702
818.927	300.383
819.055	294.319
819.183	271.340
819.312	285.170
819.440	279.936
819.568	276.617
819.696	288.468
819.824	300.596
819.952	273.213
820.080	294.830
820.208	279.043
820.337	269.787
820.465	304.660
820.593	283.021
820.721	283.170
820.849	287.319
820.977	282.106
821.105	288.915
821.233	255.298
821.362	291.809
821.490	262.213
821.618	272.936
821.746	270.383
821.874	273.191
822.002	271.298
822.130	273.489
822.258	260.277
822.387	267.489
822.515	291.596
822.643	283.681
822.771	283.064
822.899	274.851
823.027	318.319
823.155	261.383
823.283	259.383
823.412	278.106
823.540	268.894
823.668	321.170
823.796	267.277
823.924	292.660
824.052	292.404
824.180	279.872
824.308	260.298
824.437	263.426
824.565	262.936
824.693	289.426
824.821	281.404
824.949	271.404
825.077	275.830
825.205	295.468
825.333	286.872
825.462	292.426
825.590	266.447
825.718	290.362
825.846	266.298
825.974	256.979
826.102	269.936
826.230	260.340
826.358	273.043
826.487	261.021
826.615	297.936
826.743	253.553
826.871	281.872
826.999	317.213
827.127	266.957
827.255	270.894
827.383	255.957
827.512	283.170
827.640	257.468
827.768	247.894
827.896	273.574
828.024	258.574
828.152	261.894
828.280	260.894
828.408	253.894
828.537	256.426
828.665	266.936
828.793	262.553
828.921	250.255
829.049	274.149
829.177	256.000
829.305	253.979
829.433	262.681
829.562	268.128
829.690	243.191
829.818	274.787
829.946	254.660
830.074	263.723
830.202	276.894
830.330	277.851
830.458	298.787
830.587	251.660
830.715	260.681
830.843	251.702
830.971	269.043
831.099	276.638
831.227	243.340
831.355	250.574
831.483	254.553
831.612	290.255
831.740	255.915
831.868	258.660
831.996	250.681
832.124	248.830
832.252	232.617
832.380	261.383
832.508	300.787
832.637	251.574
832.765	253.383
832.893	289.213
833.021	243.617
833.149	241.000
833.277	256.426
833.405	248.553
833.533	248.468
833.662	254.468
833.790	243.638
833.918	258.745
834.046	290.149
834.174	253.574
834.302	250.064
834.430	247.213
834.558	250.277
834.687	260.574
834.815	235.255
834.943	254.660
835.071	249.511
835.199	254.915
835.327	272.915
835.455	242.574
835.583	277.809
835.712	235.574
835.840	242.106
835.968	248.021
836.096	292.000
836.224	259.383
836.352	237.574
836.480	251.915
836.608	255.191
836.737	244.787
836.865	236.617
836.993	253.787
837.121	244.489
837.249	235.319
837.377	265.681
837.505	254.468
837.633	243.404
837.762	239.021
837.890	279.723
838.018	280.511
838.146	279.979
838.274	262.213
838.402	273.894
838.530	243.809
838.658	231.213
838.787	251.085
838.915	247.851
839.043	227.170
839.171	259.766
839.299	232.340
839.427	241.915
839.555	247.894
839.683	261.362
839.812	271.894
839.940	231.830
840.068	255.574
840.196	251.106
840.324	239.383
840.452	247.085
840.580	280.234
840.708	250.936
840.837	274.574
840.965	237.362
841.093	248.830
841.221	232.745
841.349	248.149
841.477	251.532
841.605	253.468
841.733	241.638
841.862	247.362
841.990	293.000
842.118	225.468
842.246	237.447
842.374	242.383
842.502	221.617
842.630	262.787
842.758	264.532
842.887	230.660
843.015	242.383
843.143	260.851
843.271	240.553
843.399	274.404
843.527	252.511
843.655	230.106
843.783	242.830
843.912	232.064
844.040	272.170
844.168	234.064
844.296	235.468
844.424	229.979
844.552	249.851
844.680	255.426
844.808	255.660
844.937	242.043
845.065	239.064
845.193	257.043
845.321	239.064
845.449	233.745
845.577	244.000
845.705	235.043
845.833	229.511
845.962	248.553
846.090	231.638
846.218	244.191
846.346	254.255
846.474	247.936
846.602	243.106
846.730	272.213
846.858	254.319
846.987	241.936
847.115	230.489
847.243	262.553
847.371	262.894
847.499	258.489
847.627	232.957
847.755	234.574
847.883	242.936
848.012	250.319
848.140	242.128
848.268	255.702
848.396	230.660
848.524	259.936
848.652	218.149
848.780	241.660
848.908	243.979
849.037	233.745
849.165	249.596
849.293	247.894
849.421	254.511
849.549	242.404
849.677	243.085
849.805	245.021
849.933	242.745
850.062	230.617
850.190	241.489
850.318	241.617
850.446	227.702
850.574	229.319
850.702	234.617
850.830	238.915
850.958	245.255
851.087	223.234
851.215	243.553
851.343	233.128
851.471	237.809
851.599	245.745
851.727	235.979
851.855	291.915
851.983	236.702
852.112	238.553
852.240	228.660
852.368	236.766
852.496	234.362
852.624	232.851
852.752	243.936
852.880	218.447
853.008	240.319
853.137	253.000
853.265	246.149
853.393	240.681
853.521	251.681
853.649	244.638
853.777	234.723
853.905	248.851
854.033	234.532
854.162	290.319
854.290	237.468
854.418	223.277
854.546	229.064
854.674	335.447
854.802	236.745
854.930	222.851
855.058	216.851
855.187	223.787
855.315	259.255
855.443	215.596
855.571	223.745
855.699	223.255
855.827	231.894
855.955	227.255
856.083	233.617
856.212	245.532
856.340	228.787
856.468	277.170
856.596	248.489
856.724	237.447
856.852	232.213
856.980	228.170
857.108	244.255
857.237	225.000
857.365	251.872
857.493	228.362
857.621	222.426
857.749	234.319
857.877	247.447
858.005	250.255
858.133	232.681
858.262	229.213
858.390	230.298
858.518	214.170
858.646	221.511
858.774	232.830
858.902	204.426
859.030	225.638
859.158	239.787
859.287	249.128
859.415	259.404
859.543	219.468
859.671	217.894
859.799	245.234
859.927	238.383
860.055	230.447
860.183	236.915
860.312	234.043
860.440	240.043
860.568	228.234
860.696	218.213
860.824	291.872
860.952	280.362
861.080	239.468
861.208	231.830
861.337	234.426
861.465	260.255
861.593	261.043
861.721	229.404
861.849	221.362
861.977	216.617
862.105	236.489
862.233	256.234
862.362	241.936
862.490	253.340
862.618	214.915
862.746	235.617
862.874	222.872
863.002	225.000
863.130	264.894
863.258	230.766
863.387	243.128
863.515	248.234
863.643	237.596
863.771	302.468
863.899	224.660
864.027	219.766
864.155	223.021
864.283	252.830
864.412	230.447
864.540	220.660
864.668	219.000
864.796	231.574
864.924	236.979
865.052	235.255
865.180	220.255
865.308	206.532
865.437	235.766
865.565	246.340
865.693	263.787
865.821	232.830
865.949	252.553
866.077	233.340
866.205	237.511
866.333	244.745
866.462	224.170
866.590	232.447
866.718	246.255
866.846	226.617
866.974	240.872
867.102	245.702
867.230	261.596
867.358	227.447
867.487	222.723
867.615	251.638
867.743	234.404
867.871	235.851
867.999	232.574
868.127	228.255
868.255	281.043
868.383	273.362
868.512	225.809
868.640	224.830
868.768	227.681
868.896	217.447
869.024	254.468
869.152	226.723
869.280	238.319
869.408	263.000
869.537	224.085
869.665	290.340
869.793	219.702
869.921	259.660
870.049	233.872
870.177	237.745
870.305	273.511
870.433	214.340
870.562	245.936
870.690	219.915
870.818	226.340
870.946	235.596
871.074	261.340
871.202	244.574
871.330	250.234
871.458	211.213
871.587	219.723
871.715	234.447
871.843	220.702
871.971	219.660
872.099	233.872
872.227	215.809
872.355	242.979
872.483	236.170
872.612	236.596
872.740	245.340
872.868	222.298
872.996	233.830
873.124	225.872
873.252	233.532
873.380	226.723
873.508	224.149
873.637	247.000
873.765	223.489
873.893	279.085
874.021	233.340
874.149	223.532
874.277	236.383
874.405	226.021
874.533	229.128
874.662	1130.766
874.790	233.362
874.918	265.170
875.046	253.426
875.174	241.915
875.302	216.426
875.430	264.128
875.558	241.340
875.687	253.936
875.815	225.447
875.943	220.660
876.071	242.106
876.199	256.340
876.327	269.617
876.455	226.000
876.583	251.511
876.712	231.128
876.840	239.255
876.968	264.319
877.096	225.255
877.224	217.404
877.352	277.979
877.480	223.404
877.608	230.489
877.737	242.191
877.865	225.085
877.993	245.809
878.121	213.021
878.249	220.255
878.377	227.447
878.505	239.681
878.633	230.574
878.762	233.617
878.890	217.766
879.018	295.787
879.146	234.064
879.274	215.362
879.402	243.574
879.530	236.617
879.658	212.532
879.787	218.532
879.915	225.936
880.043	260.723
880.171	214.489
880.299	244.447
880.427	238.213
880.555	226.660
880.683	253.489
880.812	219.106
880.940	261.404
881.068	214.936
881.196	221.213
881.324	239.936
881.452	219.702
881.580	249.787
881.708	250.617
881.837	240.277
881.965	235.106
882.093	238.362
882.221	228.404
882.349	264.340
882.477	257.319
882.605	241.191
882.733	226.085
882.862	266.000
882.990	241.574
883.118	228.809
883.246	232.234
883.374	226.745
883.502	222.489
883.630	217.745
883.758	229.660
883.887	240.362
884.015	223.489
884.143	230.426
884.271	239.340
884.399	223.702
884.527	231.702
884.655	214.340
884.783	240.681
884.912	250.383
885.040	219.000
885.168	294.191
885.296	227.745
885.424	239.574
885.552	245.702
885.680	238.872
885.808	218.553
885.937	238.617
886.065	247.340
886.193	216.170
886.321	263.085
886.449	215.213
886.577	276.979
886.705	225.489
886.833	216.447
886.962	222.979
887.090	227.574
887.218	230.468
887.346	246.723
887.474	262.979
887.602	239.617
887.730	232.553
887.858	251.170
887.987	221.766
888.115	264.489
888.243	235.191
888.371	231.745
888.499	219.830
888.627	245.553
888.755	243.128
888.883	229.340
889.012	230.213
889.140	234.745
889.268	247.213
889.396	235.872
889.524	232.830
889.652	225.021
889.780	204.936
889.908	256.213
890.037	219.596
890.165	229.574
890.293	248.128
890.421	288.319
890.549	242.872
890.677	229.957
890.805	222.362
890.933	252.149
891.062	228.298
891.190	224.957
891.318	240.043
891.446	231.085
891.574	218.170
891.702	223.362
891.830	228.340
891.958	264.277
892.087	258.106
892.215	235.553
892.343	236.000
892.471	242.809
892.599	227.489
892.727	252.660
892.855	227.234
892.983	217.915
893.112	228.085
893.240	221.255
893.368	264.702
893.496	226.957
893.624	230.468
893.752	288.149
893.880	272.681
894.008	206.660
894.137	240.000
894.265	233.532
894.393	229.043
894.521	230.404
894.649	249.830
894.777	225.809
894.905	216.021
895.033	262.723
895.162	221.021
895.290	263.468
895.418	242.426
895.546	243.936
895.674	310.468
895.802	229.468
895.930	249.213
896.058	212.043
896.187	220.149
896.315	219.681
896.443	220.021
896.571	230.298
896.699	226.723
896.827	241.638
896.955	240.043
897.083	222.319
897.212	264.830
897.340	227.234
897.468	208.957
897.596	222.085
897.724	272.149
897.852	238.915
897.980	222.447
898.108	229.489
898.237	224.447
898.365	219.106
898.493	235.574
898.621	231.553
898.749	226.936
898.877	235.596
899.005	213.851
899.133	225.957
899.262	237.085
899.390	262.489
899.518	236.170
899.646	229.894
899.774	253.149
899.902	303.106
900.030	242.128
900.158	227.106
900.287	243.766
900.415	206.681
900.543	235.128
900.671	228.532
900.799	251.128
900.927	215.553
901.055	219.468
901.183	232.809
901.312	256.660
901.440	240.830
901.568	242.255
901.696	234.596
901.824	238.851
901.952	242.447
902.080	344.532
902.208	250.957
902.337	227.298
902.465	235.511
902.593	229.574
902.721	232.957
902.849	246.468
902.977	237.149
903.105	228.106
903.233	250.532
903.362	229.787
903.490	238.957
903.618	225.021
903.746	247.702
903.874	213.872
904.002	234.340
904.130	242.681
904.258	249.745
904.387	226.340
904.515	244.723
904.643	214.766
904.771	223.340
904.899	245.511
905.027	253.681
905.155	236.979
905.283	234.191
905.412	253.574
905.540	234.362
905.668	230.447
905.796	232.447
905.924	228.000
906.052	236.106
906.180	257.979
906.308	239.936
906.437	267.702
906.565	235.723
906.693	235.660
906.821	219.596
906.949	227.596
907.077	245.000
907.205	242.936
907.333	240.170
907.462	221.830
907.590	230.085
907.718	247.277
907.846	272.383
907.974	230.936
908.102	235.851
908.230	261.851
908.358	266.660
908.487	244.213
908.615	242.745
908.743	248.170
908.871	290.191
908.999	235.532
909.127	264.638
909.255	221.021
909.383	233.596
909.512	273.979
909.640	239.638
909.768	235.043
909.896	289.213
910.024	268.340
910.152	251.979
910.280	283.894
910.408	237.553
910.537	236.426
910.665	267.745
910.793	239.723
910.921	258.638
911.049	231.362
911.177	226.489
911.305	256.894
911.433	245.277
911.562	243.426
911.690	243.340
911.818	295.043
911.946	235.383
912.074	262.191
912.202	273.638
912.330	239.170
912.458	244.830
912.587	258.830
912.715	263.617
912.843	264.128
912.971	257.149
913.099	276.872
913.227	255.957
913.355	248.149
913.483	260.574
913.612	258.553
913.740	375.277
913.868	262.234
