0pol_90_130_at_750.00nm_cut_at_984.50Y_01.dat
24.04.2023
10:45:54
cut middle at Y: 984.50
top cursor: 1008 down cursor: 961 mean of: 47 lines , 2560 datapoints
wavelength(nm)	intensity[arb. units]
585.996	11615.766
586.124	11268.043
586.252	11220.255
586.380	11258.809
586.508	11329.489
586.637	11381.340
586.765	11451.681
586.893	11488.745
587.021	11500.766
587.149	11555.000
587.277	11504.511
587.405	11594.532
587.533	11481.085
587.662	11666.191
587.790	11608.915
587.918	11544.447
588.046	11585.021
588.174	11531.511
588.302	11586.511
588.430	11552.979
588.558	11593.596
588.687	11585.702
588.815	11541.064
588.943	11523.936
589.071	11532.149
589.199	11580.596
589.327	11526.021
589.455	11501.553
589.583	11645.426
589.712	11623.383
589.840	11555.255
589.968	11564.936
590.096	11572.851
590.224	11582.021
590.352	11542.915
590.480	11574.872
590.608	11577.660
590.737	11688.128
590.865	11659.574
590.993	11523.723
591.121	11593.617
591.249	11655.213
591.377	11630.404
591.505	11637.170
591.633	11696.851
591.762	11640.234
591.890	11776.468
592.018	11668.596
592.146	11624.596
592.274	11655.106
592.402	11677.787
592.530	11658.660
592.658	11883.638
592.787	11729.766
592.915	11918.191
593.043	11790.404
593.171	11799.106
593.299	11858.213
593.427	11855.000
593.555	11892.149
593.683	11877.362
593.812	11925.191
593.940	11959.617
594.068	11963.149
594.196	12053.851
594.324	11987.021
594.452	12040.638
594.580	12086.340
594.708	12124.702
594.837	12061.596
594.965	12165.638
595.093	12144.745
595.221	12181.170
595.349	12341.340
595.477	12249.340
595.605	12251.064
595.733	12231.702
595.862	12499.213
595.990	12310.681
596.118	12333.766
596.246	12469.489
596.374	12383.660
596.502	12402.106
596.630	12381.234
596.758	12373.979
596.887	12365.511
597.015	12402.957
597.143	12411.043
597.271	12411.809
597.399	12443.255
597.527	12379.000
597.655	12412.468
597.783	12411.638
597.912	12371.085
598.040	12432.234
598.168	12440.106
598.296	12393.745
598.424	12428.894
598.552	12397.191
598.680	12303.383
598.808	12450.149
598.937	12357.596
599.065	12347.298
599.193	12447.404
599.321	12358.191
599.449	12335.128
599.577	12273.723
599.705	12370.809
599.833	12297.468
599.962	12322.234
600.090	12382.340
600.218	12378.979
600.346	12479.043
600.474	12370.660
600.602	12347.660
600.730	12454.532
600.858	12488.660
600.987	12610.489
601.115	12516.234
601.243	12531.936
601.371	12520.128
601.499	12631.234
601.627	12630.170
601.755	12630.809
601.883	12745.404
602.012	12720.340
602.140	12728.085
602.268	12875.957
602.396	12801.362
602.524	12920.957
602.652	12832.766
602.780	12922.085
602.908	12944.511
603.037	12984.638
603.165	12987.128
603.293	13091.617
603.421	13083.128
603.549	13158.362
603.677	13242.319
603.805	13185.702
603.933	13232.362
604.062	13368.574
604.190	13332.149
604.318	13312.809
604.446	13377.319
604.574	13399.936
604.702	13493.255
604.830	13473.617
604.958	13471.128
605.087	13510.106
605.215	13536.191
605.343	13588.298
605.471	13598.745
605.599	13710.809
605.727	13668.064
605.855	13773.213
605.983	13633.362
606.112	13718.617
606.240	13705.106
606.368	13731.383
606.496	13952.468
606.624	13751.830
606.752	13780.319
606.880	13904.021
607.008	13999.277
607.137	13943.723
607.265	13704.128
607.393	13786.851
607.521	13935.809
607.649	13789.234
607.777	13840.064
607.905	13845.553
608.033	13798.660
608.162	13818.957
608.290	13827.872
608.418	13748.383
608.546	13843.957
608.674	13781.532
608.802	13771.064
608.930	13775.851
609.058	13792.277
609.187	13879.809
609.315	13823.340
609.443	13793.553
609.571	13843.596
609.699	13806.298
609.827	13834.404
609.955	13784.170
610.083	13784.489
610.212	13780.830
610.340	13732.979
610.468	13806.447
610.596	13795.404
610.724	13793.638
610.852	13770.553
610.980	13760.830
611.108	13828.000
611.237	13724.809
611.365	13768.702
611.493	13742.596
611.621	13773.043
611.749	13808.936
611.877	13836.660
612.005	13834.532
612.133	13876.596
612.262	13922.213
612.390	13890.340
612.518	13958.638
612.646	14041.404
612.774	13909.511
612.902	13995.766
613.030	14032.894
613.158	14182.106
613.287	14120.064
613.415	14076.213
613.543	14007.660
613.671	14014.766
613.799	14082.979
613.927	14010.681
614.055	14027.298
614.183	14233.170
614.312	14062.213
614.440	14188.043
614.568	14134.532
614.696	14153.149
614.824	14361.319
614.952	14213.532
615.080	14210.128
615.208	14349.957
615.337	14356.894
615.465	14398.468
615.593	14529.064
615.721	14712.064
615.849	14646.191
615.977	14741.383
616.105	14688.064
616.233	14549.021
616.362	14668.532
616.490	14643.191
616.618	14677.064
616.746	14727.362
616.874	14828.404
617.002	14737.149
617.130	14777.170
617.258	14892.043
617.387	14785.255
617.515	14824.766
617.643	14800.915
617.771	14813.255
617.899	14827.489
618.027	14800.340
618.155	14939.936
618.283	14772.191
618.412	14864.638
618.540	14892.638
618.668	14836.851
618.796	14885.574
618.924	15069.851
619.052	14875.809
619.180	14874.936
619.308	14892.340
619.437	14922.979
619.565	14892.957
619.693	14835.191
619.821	14838.830
619.949	14839.936
620.077	14937.681
620.205	14944.638
620.333	15001.277
620.462	14893.468
620.590	14966.277
620.718	14902.574
620.846	14929.213
620.974	14882.553
621.102	14908.191
621.230	14841.851
621.358	14996.404
621.487	14792.702
621.615	14872.766
621.743	14931.553
621.871	14907.766
621.999	14929.340
622.127	14937.787
622.255	14915.319
622.383	14849.617
622.512	14806.383
622.640	14958.553
622.768	14779.277
622.896	14788.340
623.024	14768.702
623.152	14883.362
623.280	14874.021
623.408	14680.064
623.537	14745.404
623.665	14736.277
623.793	14796.809
623.921	14743.404
624.049	14658.468
624.177	14697.128
624.305	14732.787
624.433	14694.383
624.562	14704.872
624.690	14726.681
624.818	14775.000
624.946	14876.170
625.074	14710.213
625.202	14647.809
625.330	14641.617
625.458	14709.596
625.587	14645.681
625.715	14726.809
625.843	14812.851
625.971	14686.787
626.099	14726.255
626.227	14689.021
626.355	14645.191
626.483	14737.191
626.612	14677.468
626.740	14689.277
626.868	14741.766
626.996	14738.468
627.124	14700.234
627.252	14690.170
627.380	14719.149
627.508	14744.277
627.637	14725.426
627.765	14787.191
627.893	14847.170
628.021	14837.894
628.149	15063.106
628.277	15173.234
628.405	15124.596
628.533	14855.170
628.662	14933.596
628.790	14864.085
628.918	14923.277
629.046	14960.638
629.174	15088.362
629.302	15226.809
629.430	15071.830
629.558	14952.447
629.687	14999.404
629.815	15020.298
629.943	15060.064
630.071	15107.064
630.199	15017.872
630.327	15083.128
630.455	15086.340
630.583	15208.191
630.712	15155.894
630.840	15150.851
630.968	15200.638
631.096	15125.766
631.224	15122.277
631.352	15171.809
631.480	15195.979
631.608	15246.426
631.737	15321.362
631.865	15341.255
631.993	15183.447
632.121	15357.681
632.249	15298.191
632.377	15260.979
632.505	15271.979
632.633	15092.660
632.762	15168.191
632.890	15268.617
633.018	15049.319
633.146	15255.000
633.274	15105.851
633.402	15141.085
633.530	15125.085
633.658	15231.128
633.787	15061.787
633.915	15130.234
634.043	15051.043
634.171	15043.149
634.299	15019.447
634.427	15001.511
634.555	14969.787
634.683	14925.191
634.812	14901.085
634.940	14901.149
635.068	14792.234
635.196	14865.766
635.324	14868.298
635.452	14851.617
635.580	14721.234
635.708	14660.723
635.837	14687.021
635.965	14702.723
636.093	14636.596
636.221	14608.723
636.349	14659.766
636.477	14537.723
636.605	14731.021
636.733	14501.574
636.862	14483.894
636.990	14464.489
637.118	14503.064
637.246	14470.043
637.374	14430.383
637.502	14360.468
637.630	14332.766
637.758	14308.702
637.887	14301.957
638.015	14252.872
638.143	14231.298
638.271	14251.638
638.399	14206.830
638.527	14181.894
638.655	14181.447
638.783	14379.000
638.912	14177.851
639.040	14172.340
639.168	14179.298
639.296	14095.617
639.424	14297.766
639.552	14108.213
639.680	14246.745
639.808	14170.298
639.937	14038.106
640.065	14018.787
640.193	14123.830
640.321	14024.447
640.449	14094.106
640.577	14108.149
640.705	14003.766
640.833	14112.064
640.962	14008.277
641.090	13991.383
641.218	13967.213
641.346	14018.319
641.474	14023.787
641.602	13968.191
641.730	14012.702
641.858	14014.128
641.987	14041.021
642.115	14026.447
642.243	14014.298
642.371	14057.043
642.499	14020.149
642.627	14072.915
642.755	14105.596
642.883	14138.255
643.012	14034.043
643.140	14052.830
643.268	14046.404
643.396	14041.149
643.524	14112.702
643.652	14086.596
643.780	13998.362
643.908	14080.532
644.037	14117.170
644.165	14025.362
644.293	14047.340
644.421	14004.957
644.549	14057.745
644.677	13996.213
644.805	13978.745
644.933	13937.362
645.062	13986.170
645.190	13950.064
645.318	14047.851
645.446	13927.000
645.574	13960.362
645.702	13899.745
645.830	14005.596
645.958	13843.043
646.087	14052.277
646.215	13788.830
646.343	14002.298
646.471	13836.319
646.599	13866.234
646.727	13743.936
646.855	13741.000
646.983	13800.362
647.112	13735.702
647.240	13859.468
647.368	13680.319
647.496	13765.638
647.624	13607.106
647.752	13562.021
647.880	13632.957
648.008	13617.106
648.137	13529.851
648.265	13492.830
648.393	13482.213
648.521	13511.894
648.649	13476.447
648.777	13474.766
648.905	13380.617
649.033	13356.766
649.162	13316.340
649.290	13359.894
649.418	13273.617
649.546	13268.957
649.674	13257.489
649.802	13161.085
649.930	13308.255
650.058	13157.872
650.187	13140.830
650.315	13084.298
650.443	13176.191
650.571	13063.936
650.699	13054.894
650.827	13014.106
650.955	13054.362
651.083	12982.298
651.212	13047.638
651.340	13003.872
651.468	12920.766
651.596	12847.489
651.724	12883.979
651.852	12843.872
651.980	12803.255
652.108	12851.979
652.237	12789.298
652.365	12847.617
652.493	12738.319
652.621	12756.702
652.749	12747.468
652.877	12688.000
653.005	12649.426
653.133	12658.170
653.262	12666.830
653.390	12583.468
653.518	12667.277
653.646	12518.255
653.774	12681.277
653.902	12513.085
654.030	12483.851
654.158	12457.319
654.287	12452.234
654.415	12440.596
654.543	12435.000
654.671	12386.872
654.799	12367.447
654.927	12319.830
655.055	12278.702
655.183	12280.830
655.312	12265.809
655.440	12275.021
655.568	12251.532
655.696	12247.681
655.824	12317.745
655.952	12221.170
656.080	12102.128
656.208	12224.085
656.337	12076.787
656.465	12094.404
656.593	12006.489
656.721	11960.702
656.849	11997.362
656.977	11947.000
657.105	11862.404
657.233	11806.851
657.362	11777.957
657.490	11795.426
657.618	11755.596
657.746	11768.915
657.874	11665.511
658.002	11721.979
658.130	11660.085
658.258	11602.723
658.387	11649.957
658.515	11572.957
658.643	11595.915
658.771	11593.468
658.899	11551.915
659.027	11536.532
659.155	11499.830
659.283	11634.979
659.412	11440.213
659.540	11550.468
659.668	11407.106
659.796	11399.574
659.924	11429.936
660.052	11377.957
660.180	11337.894
660.308	11294.340
660.437	11286.128
660.565	11209.106
660.693	11211.447
660.821	11204.149
660.949	11204.702
661.077	11141.851
661.205	11120.957
661.333	11115.957
661.462	11243.872
661.590	11112.043
661.718	11322.128
661.846	11070.936
661.974	11232.170
662.102	11058.617
662.230	10993.426
662.358	10921.511
662.487	10979.553
662.615	11017.447
662.743	10918.234
662.871	10927.128
662.999	10955.085
663.127	10826.021
663.255	10944.787
663.383	10980.532
663.512	10842.043
663.640	10915.043
663.768	10866.128
663.896	10897.787
664.024	10908.170
664.152	10847.979
664.280	10907.234
664.408	10875.596
664.537	10938.362
664.665	10782.894
664.793	10729.234
664.921	10790.085
665.049	10797.936
665.177	10743.234
665.305	10776.319
665.433	10733.979
665.562	10664.894
665.690	10668.894
665.818	10871.213
665.946	10693.064
666.074	10673.255
666.202	10610.617
666.330	10683.872
666.458	10650.638
666.587	10600.043
666.715	10588.894
666.843	10567.872
666.971	10551.213
667.099	10585.915
667.227	10551.851
667.355	10546.617
667.483	10504.128
667.612	10520.489
667.740	10551.149
667.868	10600.894
667.996	10538.787
668.124	10476.660
668.252	10463.766
668.380	10480.702
668.508	10462.128
668.637	10434.298
668.765	10404.979
668.893	10479.553
669.021	10354.681
669.149	10383.660
669.277	10460.213
669.405	10330.106
669.533	10356.617
669.662	10568.106
669.790	10367.000
669.918	10377.723
670.046	10249.426
670.174	10350.170
670.302	10309.638
670.430	10274.277
670.558	10270.128
670.687	10140.894
670.815	10307.766
670.943	10111.128
671.071	10109.426
671.199	10122.170
671.327	10057.830
671.455	10056.191
671.583	10001.106
671.712	10163.106
671.840	10016.787
671.968	9884.447
672.096	9882.830
672.224	9895.106
672.352	10032.213
672.480	9840.043
672.608	9752.660
672.737	9747.596
672.865	9811.702
672.993	9695.915
673.121	9636.213
673.249	9613.872
673.377	9569.085
673.505	9502.851
673.633	9492.936
673.762	9454.915
673.890	9410.553
674.018	9665.277
674.146	9427.957
674.274	9403.213
674.402	9514.489
674.530	9322.404
674.658	9289.894
674.787	9256.638
674.915	9229.234
675.043	9254.340
675.171	9193.191
675.299	9167.915
675.427	9156.000
675.555	9063.532
675.683	9055.340
675.812	9038.064
675.940	9071.660
676.068	8972.298
676.196	8954.681
676.324	8925.957
676.452	8921.426
676.580	8867.511
676.708	8859.128
676.837	8872.809
676.965	8778.383
677.093	8725.702
677.221	8740.596
677.349	8752.447
677.477	8764.298
677.605	8676.553
677.733	8705.000
677.862	8522.043
677.990	8523.277
678.118	8548.489
678.246	8526.362
678.374	8559.957
678.502	8418.681
678.630	8415.745
678.758	8370.957
678.887	8356.277
679.015	8413.340
679.143	8360.702
679.271	8283.681
679.399	8339.553
679.527	8276.000
679.655	8234.723
679.783	8261.638
679.912	8295.915
680.040	8223.702
680.168	8228.128
680.296	8153.915
680.424	8147.043
680.552	8152.702
680.680	8225.043
680.808	8103.787
680.937	8093.511
681.065	8026.043
681.193	8080.574
681.321	8114.702
681.449	8075.085
681.577	8083.574
681.705	8045.149
681.833	8020.574
681.962	7948.255
682.090	8141.809
682.218	7943.894
682.346	7971.383
682.474	7943.128
682.602	7950.596
682.730	7950.213
682.858	7872.979
682.987	7977.340
683.115	7925.170
683.243	7851.851
683.371	7807.915
683.499	7858.532
683.627	7878.596
683.755	7827.660
683.883	7924.809
684.012	7787.830
684.140	7792.574
684.268	7733.043
684.396	7764.830
684.524	7761.681
684.652	7806.894
684.780	7734.745
684.908	7725.894
685.037	7659.362
685.165	7593.617
685.293	7638.830
685.421	7692.638
685.549	7557.362
685.677	7546.851
685.805	7727.191
685.933	7582.404
686.062	7520.319
686.190	7495.830
686.318	7557.894
686.446	7505.915
686.574	7484.681
686.702	7569.213
686.830	7451.511
686.958	7428.149
687.087	7446.894
687.215	7442.574
687.343	7362.638
687.471	7338.085
687.599	7342.766
687.727	7502.851
687.855	7349.851
687.983	7373.043
688.112	7443.745
688.240	7278.511
688.368	7226.298
688.496	7311.872
688.624	7311.617
688.752	7237.170
688.880	7236.085
689.008	7201.085
689.137	7156.298
689.265	7100.043
689.393	7103.170
689.521	7109.553
689.649	7086.787
689.777	7072.723
689.905	7013.979
690.033	6991.511
690.162	6997.638
690.290	7000.298
690.418	6952.000
690.546	7029.319
690.674	7022.745
690.802	6877.681
690.930	6913.447
691.058	6884.617
691.187	6846.255
691.315	6827.383
691.443	6906.383
691.571	6794.894
691.699	6834.277
691.827	6838.489
691.955	6756.234
692.083	6729.234
692.212	6864.553
692.340	6703.255
692.468	6677.745
692.596	6698.383
692.724	6793.979
692.852	6619.149
692.980	6733.511
693.108	6577.681
693.237	6522.106
693.365	6527.340
693.493	6499.234
693.621	6478.723
693.749	6441.383
693.877	6432.638
694.005	6555.404
694.133	6437.362
694.262	6431.766
694.390	6387.617
694.518	6361.085
694.646	6311.383
694.774	6324.170
694.902	6411.766
695.030	6387.149
695.158	6230.660
695.287	6272.468
695.415	6243.851
695.543	6182.936
695.671	6331.426
695.799	6203.383
695.927	6170.468
696.055	6135.426
696.183	6159.553
696.312	6145.553
696.440	6284.085
696.568	6147.319
696.696	6152.872
696.824	6037.936
696.952	6047.106
697.080	6048.702
697.208	5983.106
697.337	6081.170
697.465	6013.979
697.593	5955.362
697.721	5959.340
697.849	5947.085
697.977	5944.745
698.105	5976.234
698.233	5884.894
698.362	5866.404
698.490	5871.021
698.618	5896.213
698.746	5959.128
698.874	5852.787
699.002	6064.915
699.130	5820.128
699.258	5804.191
699.387	5758.277
699.515	5804.915
699.643	5735.745
699.771	5784.809
699.899	5743.085
700.027	5725.404
700.155	5636.766
700.283	5683.532
700.412	5683.234
700.540	5651.000
700.668	5643.213
700.796	5579.702
700.924	5610.213
701.052	5584.660
701.180	5665.638
701.308	5575.234
701.437	5456.830
701.565	5468.191
701.693	5412.532
701.821	5448.617
701.949	5484.553
702.077	5442.511
702.205	5362.596
702.333	5377.979
702.462	5352.851
702.590	5313.894
702.718	5304.617
702.846	5253.596
702.974	5264.000
703.102	5236.532
703.230	5324.894
703.358	5246.809
703.487	5147.872
703.615	5319.447
703.743	5138.745
703.871	5115.468
703.999	5133.191
704.127	5222.745
704.255	4988.255
704.383	5188.426
704.512	5009.447
704.640	5023.362
704.768	4903.787
704.896	5015.702
705.024	4897.553
705.152	4990.660
705.280	4896.277
705.408	4824.064
705.537	4840.021
705.665	4806.277
705.793	4765.596
705.921	4737.574
706.049	4750.213
706.177	4684.149
706.305	4720.170
706.433	4783.809
706.562	4696.191
706.690	4628.362
706.818	4596.511
706.946	4798.574
707.074	4623.298
707.202	4547.702
707.330	4615.085
707.458	4542.383
707.587	4494.191
707.715	4521.128
707.843	4519.872
707.971	4531.085
708.099	4554.362
708.227	4468.085
708.355	4433.745
708.483	4420.830
708.612	4387.553
708.740	4425.574
708.868	4447.574
708.996	4411.787
709.124	4411.319
709.252	4324.766
709.380	4316.638
709.508	4340.915
709.637	4276.426
709.765	4288.660
709.893	4321.574
710.021	4286.234
710.149	4218.021
710.277	4265.574
710.405	4191.298
710.533	4177.085
710.662	4202.383
710.790	4153.000
710.918	4195.383
711.046	4158.532
711.174	4121.915
711.302	4153.830
711.430	4225.489
711.558	4066.660
711.687	4067.085
711.815	4107.404
711.943	4061.553
712.071	4092.915
712.199	4089.340
712.327	4045.830
712.455	3982.383
712.583	4011.128
712.712	3994.298
712.840	3992.660
712.968	3977.170
713.096	4006.277
713.224	3926.723
713.352	3959.468
713.480	3945.979
713.608	3917.532
713.737	3920.064
713.865	3912.149
713.993	3969.830
714.121	3872.255
714.249	3886.957
714.377	3959.277
714.505	3886.021
714.633	4002.894
714.762	3904.936
714.890	3817.255
715.018	3875.660
715.146	3877.553
715.274	3898.383
715.402	3968.511
715.530	3847.553
715.658	3782.447
715.787	3803.255
715.915	3946.532
716.043	3762.745
716.171	3821.043
716.299	3839.745
716.427	3756.106
716.555	3732.702
716.683	3726.660
716.812	3697.213
716.940	3753.064
717.068	3651.766
717.196	3836.553
717.324	3764.936
717.452	3673.532
717.580	3646.723
717.708	3641.064
717.837	3694.511
717.965	3587.340
718.093	3592.511
718.221	3578.064
718.349	3576.830
718.477	3604.213
718.605	3599.894
718.733	3552.213
718.862	3531.468
718.990	3534.404
719.118	3538.809
719.246	3481.383
719.374	3570.043
719.502	3497.383
719.630	3597.511
719.758	3421.702
719.887	3435.106
720.015	3607.468
720.143	3397.915
720.271	3417.468
720.399	3408.255
720.527	3469.723
720.655	3465.957
720.783	3442.468
720.912	3352.574
721.040	3340.426
721.168	3321.021
721.296	3395.766
721.424	3312.702
721.552	3234.809
721.680	3268.936
721.808	3301.766
721.937	3249.809
722.065	3351.128
722.193	3359.426
722.321	3199.191
722.449	3180.213
722.577	3183.362
722.705	3148.213
722.833	3192.043
722.962	3216.234
723.090	3099.021
723.218	3064.574
723.346	3088.894
723.474	3079.021
723.602	3191.936
723.730	3139.191
723.858	3224.553
723.987	3099.277
724.115	3131.787
724.243	3059.128
724.371	3070.064
724.499	3109.745
724.627	2958.213
724.755	2976.085
724.883	2985.021
725.012	2983.979
725.140	3022.383
725.268	2959.043
725.396	2860.106
725.524	2918.021
725.652	2948.702
725.780	2878.681
725.908	2963.255
726.037	3095.319
726.165	2841.745
726.293	2843.766
726.421	2814.298
726.549	2809.957
726.677	2814.596
726.805	2809.936
726.933	2743.404
727.062	2824.362
727.190	2794.000
727.318	2717.128
727.446	2763.745
727.574	2752.319
727.702	2884.745
727.830	2702.021
727.958	2765.702
728.087	2692.021
728.215	2816.234
728.343	2792.340
728.471	2662.383
728.599	2671.383
728.727	2777.404
728.855	2623.596
728.983	2639.787
729.112	2632.447
729.240	2572.106
729.368	2650.809
729.496	2633.787
729.624	2630.191
729.752	2571.745
729.880	2626.298
730.008	2572.447
730.137	2596.319
730.265	2758.149
730.393	2574.936
730.521	2668.447
730.649	2574.723
730.777	2570.021
730.905	2546.723
731.033	2633.809
731.162	2747.213
731.290	2668.468
731.418	2735.936
731.546	2711.021
731.674	2590.511
731.802	2635.745
731.930	2524.809
732.058	2546.426
732.187	2534.447
732.315	2507.936
732.443	2508.511
732.571	2604.660
732.699	2560.447
732.827	2563.340
732.955	2504.574
733.083	2491.936
733.212	2535.681
733.340	2538.447
733.468	2552.447
733.596	2480.979
733.724	2478.596
733.852	2491.511
733.980	2492.979
734.108	2531.085
734.237	2538.234
734.365	2514.234
734.493	2503.915
734.621	2473.979
734.749	2480.447
734.877	2465.489
735.005	2495.638
735.133	2460.468
735.262	2499.000
735.390	2429.128
735.518	2450.532
735.646	2448.532
735.774	2431.532
735.902	2441.213
736.030	2429.596
736.158	2472.191
736.287	2413.064
736.415	2439.170
736.543	2385.660
736.671	2377.064
736.799	2391.064
736.927	2456.170
737.055	2386.915
737.183	2382.234
737.312	2352.511
737.440	2410.000
737.568	2410.255
737.696	2365.745
737.824	2373.787
737.952	2347.234
738.080	2320.872
738.208	2372.404
738.337	2324.681
738.465	2424.830
738.593	2313.213
738.721	2290.319
738.849	2304.809
738.977	2300.936
739.105	2290.851
739.233	2306.170
739.362	2279.468
739.490	2238.617
739.618	2228.085
739.746	2274.149
739.874	2234.128
740.002	2230.000
740.130	2218.638
740.258	2231.085
740.387	2227.191
740.515	2200.404
740.643	2205.745
740.771	2238.021
740.899	2190.574
741.027	2187.170
741.155	2226.511
741.283	2145.255
741.412	2152.106
741.540	2164.468
741.668	2152.170
741.796	2122.830
741.924	2199.532
742.052	2127.638
742.180	2108.894
742.308	2139.340
742.437	2124.362
742.565	2143.702
742.693	2153.809
742.821	2084.596
742.949	2136.064
743.077	2096.660
743.205	2076.723
743.333	2100.830
743.462	2099.574
743.590	2084.660
743.718	2061.043
743.846	2078.936
743.974	2054.234
744.102	2042.851
744.230	2070.638
744.358	2018.553
744.487	2007.936
744.615	2045.872
744.743	2007.894
744.871	1998.383
744.999	2041.043
745.127	1999.745
745.255	1985.298
745.383	2008.745
745.512	2008.638
745.640	1966.170
745.768	1994.532
745.896	1969.702
746.024	1985.000
746.152	1944.213
746.280	1945.787
746.408	1940.000
746.537	1919.277
746.665	1942.191
746.793	1919.106
746.921	1902.660
747.049	1920.021
747.177	1926.957
747.305	1945.319
747.433	1941.702
747.562	1868.681
747.690	1888.723
747.818	1879.319
747.946	1879.872
748.074	1974.234
748.202	1913.064
748.330	1870.617
748.458	1878.809
748.587	1844.489
748.715	1834.106
748.843	1860.787
748.971	1840.149
749.099	1840.681
749.227	1853.362
749.355	1797.043
749.483	1835.064
749.612	1825.277
749.740	1807.191
749.868	1803.915
749.996	1789.596
750.124	1776.298
750.252	1791.681
750.380	1786.723
750.508	1766.745
750.637	1755.745
750.765	1791.447
750.893	1760.404
751.021	1780.043
751.149	1760.426
751.277	1781.532
751.405	1799.426
751.533	1819.574
751.662	1745.638
751.790	1754.468
751.918	1716.298
752.046	1736.553
752.174	1719.936
752.302	1772.149
752.430	1708.702
752.558	1670.681
752.687	1689.574
752.815	1670.021
752.943	1670.106
753.071	1666.723
753.199	1665.447
753.327	1706.851
753.455	1672.809
753.583	1627.596
753.712	1634.936
753.840	1622.255
753.968	1620.787
754.096	1609.936
754.224	1606.723
754.352	1592.894
754.480	1612.085
754.608	1598.681
754.737	1603.340
754.865	1646.532
754.993	1589.596
755.121	1584.213
755.249	1648.809
755.377	1571.936
755.505	1575.638
755.633	1606.234
755.762	1545.447
755.890	1639.468
756.018	1614.638
756.146	1559.574
756.274	1536.404
756.402	1524.277
756.530	1534.745
756.658	1559.489
756.787	1546.149
756.915	1488.298
757.043	1527.532
757.171	1512.191
757.299	1513.319
757.427	1476.553
757.555	1479.936
757.683	1522.745
757.812	1462.298
757.940	1475.511
758.068	1460.532
758.196	1463.468
758.324	1445.532
758.452	1562.745
758.580	1433.745
758.708	1452.319
758.837	1424.532
758.965	1520.149
759.093	1426.894
759.221	1385.596
759.349	1418.128
759.477	1407.021
759.605	1399.106
759.733	1386.447
759.862	1399.660
759.990	1367.170
760.118	1395.638
760.246	1344.149
760.374	1362.915
760.502	1368.043
760.630	1347.553
760.758	1352.426
760.887	1319.064
761.015	1336.170
761.143	1309.851
761.271	1317.851
761.399	1289.213
761.527	1314.489
761.655	1306.000
761.783	1287.957
761.912	1290.702
762.040	1264.319
762.168	1296.021
762.296	1274.149
762.424	1257.085
762.552	1262.362
762.680	1323.064
762.808	1223.532
762.937	1251.638
763.065	1291.277
763.193	1285.043
763.321	1227.362
763.449	1199.830
763.577	1215.191
763.705	1216.553
763.833	1290.979
763.962	1209.277
764.090	1186.511
764.218	1217.702
764.346	1188.447
764.474	1173.298
764.602	1167.255
764.730	1160.000
764.858	1185.596
764.987	1178.298
765.115	1215.511
765.243	1146.638
765.371	1151.553
765.499	1112.617
765.627	1130.872
765.755	1122.468
765.883	1135.851
766.012	1146.170
766.140	1112.170
766.268	1121.021
766.396	1109.745
766.524	1114.298
766.652	1095.745
766.780	1116.936
766.908	1109.787
767.037	1114.702
767.165	1103.872
767.293	1162.957
767.421	1088.106
767.549	1098.574
767.677	1099.851
767.805	1079.936
767.933	1101.298
768.062	1100.000
768.190	1090.957
768.318	1076.043
768.446	1084.638
768.574	1094.894
768.702	1107.894
768.830	1070.511
768.958	1076.085
769.087	1049.830
769.215	1056.957
769.343	1054.532
769.471	1038.149
769.599	1089.936
769.727	1070.660
769.855	1069.745
769.983	1042.404
770.112	1044.617
770.240	1038.234
770.368	1042.511
770.496	1032.957
770.624	1031.553
770.752	1064.617
770.880	1069.170
771.008	1030.043
771.137	1042.638
771.265	1079.574
771.393	1042.936
771.521	1041.234
771.649	1014.574
771.777	1035.723
771.905	1025.830
772.033	1016.830
772.162	1051.340
772.290	1044.000
772.418	1079.021
772.546	1043.532
772.674	1036.021
772.802	1033.021
772.930	1077.766
773.058	1023.894
773.187	1032.298
773.315	1014.681
773.443	1030.596
773.571	1027.787
773.699	1027.702
773.827	1005.021
773.955	1049.894
774.083	1043.723
774.212	1018.745
774.340	1037.000
774.468	1018.128
774.596	1020.277
774.724	1020.787
774.852	1015.000
774.980	1000.957
775.108	999.702
775.237	1007.745
775.365	1019.766
775.493	1008.340
775.621	1007.872
775.749	1000.511
775.877	1004.319
776.005	999.894
776.133	1016.000
776.262	1025.511
776.390	971.745
776.518	1032.489
776.646	994.128
776.774	1000.745
776.902	999.043
777.030	987.106
777.158	1001.085
777.287	1009.319
777.415	977.298
777.543	982.191
777.671	968.915
777.799	972.298
777.927	981.596
778.055	999.511
778.183	979.043
778.312	957.681
778.440	977.872
778.568	983.319
778.696	953.468
778.824	974.936
778.952	962.128
779.080	948.128
779.208	993.191
779.337	981.489
779.465	971.936
779.593	956.723
779.721	980.468
779.849	971.106
779.977	955.362
780.105	938.979
780.233	976.298
780.362	974.809
780.490	981.638
780.618	941.362
780.746	936.766
780.874	932.723
781.002	951.574
781.130	945.234
781.258	927.915
781.387	946.043
781.515	961.617
781.643	929.872
781.771	981.404
781.899	926.191
782.027	959.106
782.155	943.745
782.283	938.872
782.412	914.489
782.540	915.787
782.668	952.000
782.796	914.128
782.924	955.830
783.052	911.894
783.180	951.702
783.308	917.319
783.437	920.213
783.565	913.383
783.693	924.979
783.821	918.319
783.949	892.787
784.077	935.043
784.205	907.128
784.333	953.298
784.462	893.660
784.590	902.511
784.718	905.638
784.846	879.851
784.974	918.681
785.102	945.021
785.230	898.574
785.358	942.277
785.487	900.064
785.615	919.106
785.743	882.064
785.871	894.957
785.999	884.745
786.127	870.936
786.255	906.128
786.383	912.745
786.512	910.511
786.640	879.234
786.768	896.340
786.896	872.362
787.024	882.383
787.152	881.447
787.280	886.000
787.408	871.596
787.537	896.404
787.665	873.064
787.793	906.106
787.921	878.532
788.049	875.809
788.177	864.106
788.305	851.383
788.433	893.298
788.562	859.000
788.690	853.638
788.818	860.660
788.946	875.468
789.074	854.702
789.202	875.596
789.330	879.638
789.458	869.489
789.587	915.936
789.715	855.702
789.843	851.064
789.971	852.638
790.099	851.723
790.227	862.915
790.355	842.277
790.483	869.809
790.612	850.234
790.740	855.532
790.868	845.043
790.996	842.085
791.124	846.532
791.252	834.213
791.380	853.149
791.508	849.319
791.637	823.681
791.765	814.851
791.893	824.936
792.021	828.383
792.149	831.383
792.277	841.872
792.405	811.617
792.533	844.362
792.662	798.915
792.790	798.574
792.918	822.830
793.046	810.638
793.174	834.170
793.302	818.681
793.430	815.340
793.558	798.809
793.687	818.809
793.815	790.915
793.943	815.468
794.071	828.872
794.199	800.936
794.327	793.915
794.455	868.809
794.583	895.511
794.712	794.319
794.840	793.021
794.968	806.362
795.096	820.574
795.224	759.617
795.352	790.085
795.480	829.617
795.608	787.553
795.737	792.319
795.865	760.489
795.993	762.319
796.121	759.681
796.249	783.043
796.377	778.128
796.505	766.128
796.633	768.255
796.762	761.787
796.890	763.766
797.018	774.511
797.146	745.617
797.274	740.681
797.402	744.894
797.530	758.617
797.658	743.936
797.787	777.596
797.915	751.617
798.043	764.319
798.171	730.085
798.299	740.468
798.427	735.021
798.555	738.596
798.683	725.064
798.812	736.702
798.940	792.830
799.068	725.681
799.196	769.106
799.324	723.532
799.452	729.809
799.580	711.681
799.708	764.660
799.837	704.064
799.965	718.681
800.093	732.809
800.221	691.979
800.349	713.617
800.477	716.021
800.605	721.723
800.733	720.426
800.862	720.064
800.990	741.511
801.118	684.894
801.246	689.255
801.374	708.106
801.502	686.574
801.630	680.702
801.758	696.979
801.887	714.149
802.015	676.745
802.143	673.574
802.271	707.085
802.399	679.723
802.527	673.064
802.655	708.617
802.783	723.298
802.912	693.149
803.040	668.170
803.168	664.234
803.296	651.723
803.424	676.830
803.552	660.213
803.680	668.511
803.808	664.191
803.937	665.915
804.065	651.277
804.193	660.787
804.321	706.170
804.449	631.660
804.577	652.660
804.705	660.702
804.833	684.809
804.962	634.915
805.090	653.213
805.218	666.957
805.346	659.234
805.474	645.085
805.602	676.149
805.730	645.362
805.858	635.170
805.987	643.957
806.115	646.979
806.243	647.787
806.371	668.915
806.499	745.660
806.627	754.447
806.755	732.745
806.883	652.213
807.012	624.723
807.140	660.234
807.268	645.936
807.396	632.660
807.524	615.234
807.652	622.553
807.780	685.936
807.908	623.213
808.037	663.128
808.165	646.723
808.293	617.255
808.421	658.191
808.549	606.596
808.677	621.064
808.805	648.702
808.933	626.787
809.062	619.553
809.190	663.723
809.318	609.149
809.446	609.340
809.574	653.872
809.702	603.851
809.830	617.106
809.958	608.681
810.087	610.319
810.215	632.851
810.343	617.766
810.471	605.660
810.599	595.723
810.727	596.660
810.855	575.234
810.983	590.404
811.112	605.745
811.240	602.340
811.368	602.468
811.496	634.149
811.624	603.319
811.752	583.468
811.880	590.362
812.008	567.809
812.137	601.149
812.265	564.128
812.393	601.128
812.521	613.298
812.649	587.468
812.777	571.277
812.905	608.085
813.033	559.936
813.162	569.532
813.290	569.915
813.418	578.979
813.546	565.064
813.674	564.809
813.802	574.426
813.930	548.511
814.058	560.553
814.187	575.362
814.315	556.957
814.443	576.702
814.571	571.532
814.699	574.191
814.827	553.255
814.955	553.277
815.083	588.766
815.212	583.638
815.340	590.021
815.468	545.106
815.596	548.745
815.724	568.426
815.852	540.809
815.980	550.064
816.108	538.383
816.237	538.851
816.365	538.213
816.493	553.234
816.621	534.787
816.749	541.064
816.877	557.277
817.005	561.532
817.133	551.787
817.262	532.447
817.390	536.191
817.518	530.596
817.646	547.213
817.774	525.553
817.902	528.617
818.030	522.340
818.158	565.340
818.287	548.426
818.415	517.979
818.543	526.234
818.671	541.447
818.799	519.106
818.927	533.255
819.055	529.319
819.183	502.638
819.312	511.128
819.440	508.532
819.568	510.383
819.696	522.426
819.824	525.489
819.952	497.681
820.080	517.064
820.208	504.787
820.337	498.723
820.465	542.255
820.593	509.021
820.721	511.723
820.849	504.532
820.977	508.511
821.105	503.745
821.233	481.851
821.362	519.319
821.490	481.489
821.618	486.277
821.746	484.255
821.874	497.660
822.002	497.277
822.130	489.596
822.258	471.340
822.387	477.149
822.515	501.170
822.643	504.553
822.771	501.447
822.899	487.404
823.027	531.489
823.155	475.191
823.283	469.000
823.412	485.043
823.540	475.085
823.668	519.404
823.796	464.340
823.924	500.128
824.052	507.234
824.180	485.234
824.308	459.319
824.437	464.362
824.565	473.064
824.693	497.872
824.821	480.532
824.949	472.447
825.077	475.383
825.205	499.574
825.333	474.511
825.462	483.574
825.590	454.787
825.718	483.340
825.846	458.745
825.974	450.617
826.102	455.000
826.230	448.468
826.358	449.468
826.487	447.468
826.615	481.404
826.743	442.574
826.871	466.745
826.999	499.234
827.127	461.255
827.255	458.979
827.383	442.702
827.512	468.787
827.640	445.489
827.768	435.681
827.896	455.213
828.024	437.723
828.152	445.745
828.280	438.681
828.408	431.787
828.537	448.766
828.665	447.851
828.793	444.894
828.921	429.511
829.049	460.660
829.177	423.787
829.305	422.702
829.433	442.426
829.562	444.660
829.690	426.872
829.818	449.426
829.946	432.851
830.074	440.468
830.202	452.106
830.330	453.489
830.458	468.298
830.587	425.340
830.715	431.809
830.843	423.149
830.971	440.149
831.099	451.723
831.227	407.340
831.355	418.468
831.483	432.064
831.612	450.340
831.740	425.170
831.868	428.362
831.996	414.426
832.124	409.957
832.252	395.851
832.380	425.149
832.508	465.574
832.637	412.170
832.765	410.574
832.893	442.617
833.021	403.660
833.149	403.298
833.277	416.745
833.405	403.511
833.533	400.766
833.662	404.638
833.790	407.319
833.918	414.000
834.046	441.979
834.174	413.362
834.302	403.447
834.430	392.404
834.558	400.298
834.687	413.894
834.815	395.723
834.943	396.489
835.071	401.404
835.199	396.596
835.327	414.553
835.455	391.745
835.583	433.617
835.712	392.319
835.840	389.702
835.968	395.702
836.096	452.085
836.224	401.532
836.352	386.787
836.480	410.787
836.608	404.277
836.737	384.617
836.865	380.511
836.993	394.553
837.121	389.511
837.249	375.362
837.377	404.979
837.505	401.213
837.633	377.638
837.762	385.681
837.890	417.830
838.018	412.277
838.146	423.234
838.274	388.660
838.402	403.830
838.530	373.000
838.658	367.128
838.787	385.936
838.915	379.830
839.043	365.915
839.171	400.319
839.299	359.191
839.427	371.660
839.555	378.872
839.683	396.277
839.812	408.447
839.940	366.702
840.068	386.894
840.196	384.362
840.324	376.894
840.452	368.574
840.580	397.340
840.708	378.511
840.837	403.043
840.965	360.255
841.093	368.745
841.221	366.128
841.349	364.681
841.477	381.851
841.605	375.213
841.733	363.596
841.862	376.936
841.990	412.638
842.118	343.745
842.246	364.064
842.374	361.447
842.502	339.255
842.630	372.383
842.758	389.362
842.887	348.766
843.015	362.085
843.143	387.511
843.271	355.596
843.399	392.319
843.527	363.787
843.655	344.426
843.783	358.043
843.912	357.383
844.040	378.809
844.168	342.021
844.296	350.872
844.424	340.745
844.552	356.553
844.680	364.872
844.808	369.723
844.937	355.766
845.065	344.660
845.193	371.489
845.321	344.809
845.449	346.468
845.577	347.085
845.705	341.362
845.833	336.000
845.962	351.872
846.090	329.702
846.218	347.596
846.346	349.894
846.474	356.277
846.602	339.149
846.730	370.617
846.858	354.149
846.987	335.191
847.115	327.681
847.243	360.957
847.371	357.383
847.499	353.511
847.627	328.723
847.755	330.894
847.883	341.617
848.012	346.787
848.140	333.404
848.268	351.085
848.396	325.532
848.524	350.766
848.652	309.745
848.780	327.766
848.908	338.511
849.037	323.234
849.165	334.702
849.293	337.319
849.421	347.149
849.549	324.319
849.677	331.426
849.805	328.532
849.933	332.894
850.062	330.681
850.190	323.702
850.318	333.319
850.446	320.872
850.574	314.404
850.702	325.915
850.830	324.511
850.958	332.553
851.087	309.128
851.215	327.532
851.343	319.532
851.471	314.894
851.599	327.511
851.727	326.851
851.855	369.979
851.983	330.255
852.112	313.553
852.240	316.468
852.368	321.362
852.496	314.830
852.624	311.170
852.752	319.234
852.880	298.638
853.008	316.170
853.137	324.404
853.265	325.404
853.393	320.191
853.521	331.000
853.649	313.128
853.777	307.979
853.905	320.702
854.033	307.489
854.162	377.277
854.290	314.511
854.418	301.128
854.546	301.915
854.674	410.383
854.802	313.319
854.930	295.362
855.058	287.043
855.187	291.596
855.315	328.170
855.443	288.766
855.571	298.213
855.699	300.830
855.827	302.894
855.955	301.404
856.083	308.234
856.212	317.298
856.340	293.574
856.468	348.277
856.596	319.021
856.724	308.362
856.852	298.723
856.980	296.702
857.108	312.681
857.237	286.681
857.365	321.255
857.493	292.723
857.621	285.128
857.749	301.979
857.877	311.617
858.005	313.064
858.133	295.468
858.262	290.404
858.390	290.043
858.518	280.085
858.646	283.574
858.774	284.468
858.902	267.851
859.030	281.468
859.158	300.745
859.287	300.851
859.415	314.191
859.543	281.574
859.671	277.681
859.799	304.149
859.927	298.319
860.055	281.894
860.183	294.553
860.312	283.596
860.440	289.149
860.568	285.638
860.696	271.936
860.824	352.638
860.952	335.979
861.080	288.681
861.208	287.213
861.337	297.532
861.465	316.106
861.593	319.128
861.721	278.128
861.849	292.128
861.977	269.043
862.105	291.468
862.233	317.596
862.362	293.277
862.490	308.532
862.618	275.106
862.746	278.979
862.874	282.298
863.002	272.638
863.130	303.170
863.258	284.915
863.387	295.298
863.515	295.106
863.643	290.213
863.771	347.511
863.899	282.957
864.027	264.574
864.155	275.255
864.283	302.638
864.412	278.936
864.540	275.064
864.668	264.404
864.796	272.936
864.924	282.766
865.052	274.915
865.180	263.383
865.308	256.319
865.437	277.894
865.565	278.830
865.693	301.830
865.821	275.915
865.949	288.191
866.077	281.191
866.205	277.809
866.333	287.553
866.462	262.064
866.590	271.894
866.718	280.106
866.846	276.553
866.974	279.660
867.102	289.340
867.230	311.021
867.358	272.809
867.487	262.213
867.615	293.979
867.743	278.681
867.871	277.596
867.999	276.830
868.127	263.787
868.255	320.021
868.383	314.255
868.512	267.894
868.640	260.383
868.768	257.702
868.896	260.085
869.024	300.043
869.152	263.234
869.280	275.936
869.408	294.957
869.537	258.277
869.665	333.043
869.793	261.532
869.921	302.319
870.049	268.468
870.177	270.447
870.305	309.191
870.433	251.043
870.562	279.170
870.690	253.149
870.818	254.468
870.946	274.383
871.074	293.106
871.202	271.085
871.330	284.043
871.458	240.851
871.587	260.340
871.715	274.404
871.843	262.362
871.971	251.553
872.099	261.553
872.227	258.106
872.355	270.213
872.483	274.149
872.612	271.128
872.740	269.277
872.868	257.277
872.996	257.383
873.124	256.298
873.252	256.043
873.380	256.191
873.508	251.745
873.637	277.277
873.765	253.532
873.893	307.362
874.021	264.255
874.149	252.447
874.277	263.553
874.405	251.745
874.533	259.830
874.662	1159.681
874.790	263.340
874.918	295.000
875.046	276.617
875.174	274.383
875.302	244.936
875.430	294.574
875.558	264.830
875.687	274.383
875.815	257.085
875.943	254.085
876.071	267.617
876.199	284.766
876.327	297.681
876.455	256.191
876.583	280.362
876.712	252.191
876.840	269.447
876.968	296.660
877.096	258.319
877.224	245.043
877.352	303.043
877.480	247.128
877.608	258.936
877.737	265.511
877.865	254.021
877.993	273.957
878.121	234.936
878.249	241.000
878.377	247.979
878.505	254.085
878.633	260.851
878.762	255.404
878.890	238.426
879.018	320.660
879.146	260.638
879.274	243.872
879.402	273.043
879.530	258.362
879.658	234.787
879.787	248.128
879.915	247.213
880.043	280.787
880.171	240.298
880.299	269.170
880.427	260.936
880.555	252.383
880.683	270.915
880.812	234.085
880.940	278.404
881.068	235.149
881.196	244.894
881.324	259.894
881.452	237.809
881.580	269.362
881.708	273.532
881.837	259.915
881.965	255.128
882.093	266.255
882.221	239.298
882.349	284.766
882.477	264.128
882.605	260.106
882.733	238.043
882.862	285.979
882.990	265.319
883.118	244.362
883.246	253.638
883.374	244.574
883.502	244.447
883.630	232.255
883.758	251.468
883.887	253.191
884.015	239.468
884.143	241.213
884.271	255.872
884.399	236.702
884.527	252.851
884.655	227.213
884.783	252.681
884.912	260.681
885.040	239.617
885.168	310.766
885.296	237.362
885.424	255.213
885.552	261.681
885.680	245.298
885.808	240.745
885.937	263.106
886.065	256.723
886.193	231.447
886.321	282.064
886.449	234.021
886.577	285.170
886.705	237.851
886.833	235.830
886.962	240.596
887.090	238.745
887.218	241.723
887.346	260.830
887.474	273.830
887.602	259.404
887.730	252.723
887.858	263.681
887.987	237.319
888.115	271.702
888.243	244.362
888.371	247.787
888.499	242.872
888.627	262.191
888.755	255.766
888.883	245.872
889.012	239.191
889.140	239.766
889.268	255.915
889.396	256.277
889.524	242.362
889.652	229.426
889.780	225.319
889.908	267.106
890.037	238.277
890.165	239.000
890.293	263.340
890.421	297.255
890.549	249.426
890.677	250.787
890.805	234.234
890.933	262.638
891.062	242.702
891.190	232.362
891.318	251.170
891.446	240.638
891.574	234.191
891.702	234.489
891.830	239.809
891.958	273.723
892.087	270.915
892.215	246.511
892.343	247.723
892.471	255.170
892.599	238.234
892.727	262.340
892.855	232.340
892.983	229.660
893.112	241.723
893.240	232.809
893.368	270.489
893.496	247.553
893.624	247.298
893.752	296.085
893.880	282.532
894.008	224.638
894.137	249.000
894.265	246.106
894.393	240.362
894.521	239.872
894.649	264.255
894.777	244.638
894.905	221.787
895.033	266.957
895.162	233.298
895.290	271.319
895.418	254.234
895.546	252.319
895.674	321.021
895.802	229.106
895.930	252.468
896.058	216.043
896.187	231.511
896.315	233.511
896.443	229.617
896.571	234.936
896.699	236.447
896.827	245.745
896.955	249.128
897.083	226.298
897.212	265.745
897.340	233.574
897.468	220.617
897.596	231.085
897.724	277.213
897.852	245.021
897.980	233.340
898.108	242.383
898.237	228.532
898.365	222.383
898.493	240.872
898.621	237.872
898.749	237.021
898.877	242.191
899.005	222.553
899.133	233.702
899.262	250.936
899.390	266.213
899.518	242.043
899.646	234.660
899.774	262.085
899.902	317.894
900.030	250.191
900.158	240.319
900.287	255.298
900.415	223.255
900.543	246.021
900.671	237.830
900.799	264.021
900.927	235.447
901.055	223.851
901.183	240.936
901.312	262.149
901.440	252.149
901.568	249.426
901.696	244.915
901.824	248.894
901.952	248.979
902.080	352.702
902.208	266.383
902.337	227.574
902.465	250.362
902.593	233.426
902.721	243.915
902.849	247.213
902.977	249.702
903.105	237.021
903.233	253.404
903.362	237.830
903.490	253.277
903.618	233.915
903.746	249.745
903.874	225.638
904.002	248.319
904.130	246.277
904.258	257.915
904.387	233.404
904.515	256.149
904.643	221.660
904.771	234.851
904.899	249.702
905.027	266.830
905.155	246.000
905.283	240.489
905.412	268.745
905.540	239.723
905.668	241.532
905.796	234.213
905.924	234.106
906.052	235.319
906.180	259.447
906.308	250.915
906.437	264.383
906.565	244.383
906.693	249.106
906.821	219.809
906.949	236.574
907.077	250.979
907.205	243.489
907.333	242.277
907.462	231.766
907.590	238.660
907.718	257.638
907.846	279.319
907.974	234.489
908.102	236.447
908.230	260.553
908.358	275.745
908.487	246.000
908.615	239.638
908.743	247.660
908.871	301.766
908.999	240.447
909.127	270.340
909.255	231.149
909.383	239.596
909.512	277.915
909.640	246.064
909.768	242.872
909.896	294.362
910.024	268.511
910.152	249.000
910.280	285.872
910.408	240.511
910.537	242.872
910.665	271.851
910.793	248.255
910.921	257.128
911.049	231.809
911.177	234.234
911.305	255.957
911.433	248.723
911.562	244.787
911.690	252.894
911.818	301.468
911.946	241.234
912.074	259.936
912.202	282.191
912.330	242.447
912.458	249.383
912.587	261.894
912.715	276.532
912.843	274.426
912.971	268.191
913.099	280.319
913.227	265.957
913.355	254.702
913.483	266.191
913.612	270.596
913.740	387.681
913.868	266.830
