0pol_70_120_at_750.00nm_cut_at_984.50Y_01.dat
24.04.2023
10:54:10
cut middle at Y: 984.50
top cursor: 1008 down cursor: 961 mean of: 47 lines , 2560 datapoints
wavelength(nm)	intensity[arb. units]
585.996	12861.851
586.124	12543.170
586.252	12465.298
586.380	12536.447
586.508	12551.213
586.637	12650.511
586.765	12687.128
586.893	12701.128
587.021	12790.234
587.149	12841.617
587.277	12777.255
587.405	12869.702
587.533	12792.383
587.662	12946.021
587.790	12916.574
587.918	12839.787
588.046	12861.532
588.174	12831.170
588.302	12869.404
588.430	12816.000
588.558	12813.021
588.687	12883.213
588.815	12860.362
588.943	12846.426
589.071	12826.617
589.199	12902.277
589.327	12885.106
589.455	12842.149
589.583	12973.660
589.712	12983.511
589.840	12868.745
589.968	12892.340
590.096	12883.574
590.224	12911.447
590.352	12897.766
590.480	12953.596
590.608	12895.915
590.737	12988.447
590.865	12979.255
590.993	12897.426
591.121	12972.064
591.249	12957.000
591.377	12951.277
591.505	12971.191
591.633	12973.043
591.762	12987.170
591.890	13149.617
592.018	12969.043
592.146	12990.489
592.274	13070.021
592.402	13022.021
592.530	13090.596
592.658	13313.660
592.787	13167.979
592.915	13260.319
593.043	13214.234
593.171	13176.149
593.299	13246.745
593.427	13292.234
593.555	13333.277
593.683	13316.681
593.812	13371.532
593.940	13356.043
594.068	13406.915
594.196	13512.170
594.324	13546.532
594.452	13474.915
594.580	13534.745
594.708	13566.574
594.837	13552.957
594.965	13653.574
595.093	13634.723
595.221	13715.745
595.349	13872.894
595.477	13755.553
595.605	13814.681
595.733	13735.574
595.862	14001.213
595.990	13807.021
596.118	13867.851
596.246	14087.277
596.374	13922.830
596.502	13946.362
596.630	13963.766
596.758	13937.043
596.887	13972.957
597.015	14010.979
597.143	13987.638
597.271	14019.064
597.399	13994.362
597.527	14030.043
597.655	13989.362
597.783	13970.043
597.912	13947.383
598.040	13963.787
598.168	14018.745
598.296	14036.362
598.424	13957.064
598.552	13989.766
598.680	13885.404
598.808	14047.298
598.937	13964.298
599.065	13977.468
599.193	14038.894
599.321	14076.383
599.449	13870.532
599.577	13956.787
599.705	13981.872
599.833	13959.851
599.962	13987.319
600.090	14024.298
600.218	14048.404
600.346	14125.340
600.474	14044.468
600.602	14048.000
600.730	14082.851
600.858	14154.213
600.987	14303.064
601.115	14231.894
601.243	14226.787
601.371	14236.128
601.499	14270.170
601.627	14382.617
601.755	14363.723
601.883	14449.213
602.012	14479.638
602.140	14448.957
602.268	14610.809
602.396	14548.468
602.524	14651.681
602.652	14634.170
602.780	14657.106
602.908	14699.106
603.037	14783.489
603.165	14806.255
603.293	14869.511
603.421	14845.234
603.549	14939.255
603.677	15054.936
603.805	14991.851
603.933	15057.128
604.062	15179.638
604.190	15169.064
604.318	15234.468
604.446	15268.894
604.574	15271.149
604.702	15346.340
604.830	15339.936
604.958	15412.723
605.087	15448.894
605.215	15479.383
605.343	15494.426
605.471	15519.362
605.599	15606.043
605.727	15559.213
605.855	15696.660
605.983	15669.830
606.112	15713.128
606.240	15686.574
606.368	15709.362
606.496	15931.574
606.624	15757.404
606.752	15839.723
606.880	15887.255
607.008	15991.809
607.137	15903.340
607.265	15755.660
607.393	15861.574
607.521	15923.468
607.649	15810.723
607.777	15801.447
607.905	15929.383
608.033	15852.085
608.162	15832.596
608.290	15901.106
608.418	15783.404
608.546	15887.894
608.674	15864.021
608.802	15802.553
608.930	15830.660
609.058	15822.936
609.187	15911.915
609.315	15878.468
609.443	15881.000
609.571	15931.872
609.699	15823.660
609.827	15857.085
609.955	15893.064
610.083	15837.723
610.212	15821.787
610.340	15829.787
610.468	15913.851
610.596	15905.149
610.724	15925.426
610.852	15894.596
610.980	15868.128
611.108	15901.553
611.237	15841.553
611.365	15888.872
611.493	15866.085
611.621	15897.617
611.749	15945.319
611.877	15986.170
612.005	15956.191
612.133	15999.043
612.262	16004.787
612.390	16061.255
612.518	16157.638
612.646	16215.191
612.774	16101.702
612.902	16209.830
613.030	16287.170
613.158	16373.574
613.287	16291.766
613.415	16271.277
613.543	16187.064
613.671	16303.128
613.799	16356.596
613.927	16283.532
614.055	16253.957
614.183	16445.021
614.312	16379.511
614.440	16533.298
614.568	16457.936
614.696	16562.489
614.824	16682.787
614.952	16479.681
615.080	16558.936
615.208	16701.213
615.337	16662.979
615.465	16782.574
615.593	16938.915
615.721	17019.404
615.849	17113.000
615.977	17134.553
616.105	17059.021
616.233	17031.830
616.362	17086.128
616.490	17157.894
616.618	17180.340
616.746	17195.085
616.874	17299.872
617.002	17202.128
617.130	17250.915
617.258	17437.255
617.387	17311.851
617.515	17325.894
617.643	17366.128
617.771	17361.064
617.899	17360.319
618.027	17344.936
618.155	17441.553
618.283	17360.170
618.412	17408.702
618.540	17434.957
618.668	17417.277
618.796	17465.404
618.924	17553.404
619.052	17500.191
619.180	17488.468
619.308	17489.149
619.437	17490.383
619.565	17483.106
619.693	17459.532
619.821	17490.468
619.949	17437.511
620.077	17532.660
620.205	17508.745
620.333	17503.447
620.462	17556.872
620.590	17563.191
620.718	17465.787
620.846	17560.426
620.974	17561.000
621.102	17550.979
621.230	17526.340
621.358	17620.894
621.487	17466.851
621.615	17502.745
621.743	17535.489
621.871	17531.064
621.999	17623.064
622.127	17505.255
622.255	17522.000
622.383	17548.809
622.512	17520.915
622.640	17621.234
622.768	17519.872
622.896	17538.830
623.024	17514.128
623.152	17594.191
623.280	17563.021
623.408	17488.383
623.537	17528.851
623.665	17480.553
623.793	17526.681
623.921	17464.426
624.049	17483.362
624.177	17453.170
624.305	17465.660
624.433	17486.745
624.562	17550.234
624.690	17447.383
624.818	17542.723
624.946	17649.936
625.074	17525.277
625.202	17457.915
625.330	17452.340
625.458	17492.766
625.587	17519.596
625.715	17483.298
625.843	17626.383
625.971	17536.596
626.099	17516.511
626.227	17518.149
626.355	17420.340
626.483	17606.681
626.612	17595.596
626.740	17569.617
626.868	17561.979
626.996	17573.532
627.124	17466.979
627.252	17578.234
627.380	17652.936
627.508	17626.362
627.637	17646.596
627.765	17630.702
627.893	17675.213
628.021	17726.617
628.149	17980.723
628.277	18087.489
628.405	18067.894
628.533	17794.149
628.662	17827.638
628.790	17805.957
628.918	17829.894
629.046	17835.043
629.174	17976.894
629.302	18214.894
629.430	18064.766
629.558	17967.149
629.687	17947.064
629.815	18032.255
629.943	18040.362
630.071	18060.979
630.199	18163.149
630.327	18093.787
630.455	18128.681
630.583	18242.872
630.712	18122.574
630.840	18235.787
630.968	18267.936
631.096	18217.319
631.224	18234.277
631.352	18270.872
631.480	18275.277
631.608	18303.511
631.737	18426.617
631.865	18485.638
631.993	18275.149
632.121	18447.319
632.249	18397.277
632.377	18457.277
632.505	18379.894
632.633	18210.021
632.762	18320.745
632.890	18337.021
633.018	18221.298
633.146	18414.617
633.274	18264.809
633.402	18307.021
633.530	18203.106
633.658	18406.489
633.787	18153.723
633.915	18267.851
634.043	18204.745
634.171	18181.936
634.299	18161.681
634.427	18178.723
634.555	18123.191
634.683	18074.362
634.812	18033.787
634.940	18010.404
635.068	17937.191
635.196	17974.638
635.324	17933.745
635.452	17938.426
635.580	17944.809
635.708	17811.489
635.837	17880.255
635.965	17791.511
636.093	17720.191
636.221	17748.617
636.349	17814.660
636.477	17652.426
636.605	17770.915
636.733	17552.957
636.862	17581.021
636.990	17537.660
637.118	17576.894
637.246	17552.064
637.374	17459.979
637.502	17419.191
637.630	17412.957
637.758	17397.106
637.887	17375.511
638.015	17314.702
638.143	17341.021
638.271	17281.851
638.399	17296.298
638.527	17259.362
638.655	17288.362
638.783	17401.043
638.912	17245.553
639.040	17211.255
639.168	17274.617
639.296	17170.638
639.424	17308.468
639.552	17124.255
639.680	17334.043
639.808	17191.894
639.937	17161.319
640.065	17091.191
640.193	17213.553
640.321	17102.596
640.449	17123.596
640.577	17229.064
640.705	17143.085
640.833	17234.574
640.962	17126.298
641.090	17138.936
641.218	17090.723
641.346	17145.830
641.474	17208.000
641.602	17138.979
641.730	17100.787
641.858	17170.255
641.987	17142.064
642.115	17141.426
642.243	17181.787
642.371	17140.574
642.499	17133.787
642.627	17154.553
642.755	17241.702
642.883	17259.170
643.012	17181.979
643.140	17103.702
643.268	17183.489
643.396	17195.511
643.524	17350.298
643.652	17233.404
643.780	17154.170
643.908	17246.511
644.037	17278.383
644.165	17187.468
644.293	17176.936
644.421	17191.085
644.549	17224.894
644.677	17172.340
644.805	17201.936
644.933	17101.021
645.062	17120.511
645.190	17104.957
645.318	17219.489
645.446	17087.319
645.574	17061.128
645.702	17022.745
645.830	17261.426
645.958	17023.277
646.087	17197.638
646.215	16955.340
646.343	17166.532
646.471	17036.894
646.599	17002.660
646.727	16951.085
646.855	16909.213
646.983	16924.255
647.112	16839.170
647.240	16945.745
647.368	16800.787
647.496	16887.404
647.624	16809.936
647.752	16757.362
647.880	16740.532
648.008	16671.830
648.137	16645.915
648.265	16640.660
648.393	16609.702
648.521	16572.809
648.649	16551.064
648.777	16481.511
648.905	16480.851
649.033	16461.872
649.162	16359.489
649.290	16434.277
649.418	16299.553
649.546	16395.319
649.674	16291.106
649.802	16208.149
649.930	16396.638
650.058	16172.255
650.187	16175.234
650.315	16110.191
650.443	16150.255
650.571	16078.426
650.699	16084.468
650.827	15985.745
650.955	16034.468
651.083	15989.553
651.212	15985.362
651.340	15975.213
651.468	15917.894
651.596	15828.894
651.724	15865.447
651.852	15802.085
651.980	15727.851
652.108	15788.702
652.237	15737.426
652.365	15797.489
652.493	15695.191
652.621	15624.745
652.749	15665.255
652.877	15593.617
653.005	15554.234
653.133	15521.617
653.262	15559.426
653.390	15516.404
653.518	15529.277
653.646	15485.660
653.774	15635.340
653.902	15445.170
654.030	15373.851
654.158	15379.872
654.287	15381.787
654.415	15269.149
654.543	15329.000
654.671	15321.255
654.799	15228.532
654.927	15166.681
655.055	15124.362
655.183	15153.936
655.312	15149.936
655.440	15144.213
655.568	15094.298
655.696	15115.936
655.824	15163.277
655.952	15040.511
656.080	14909.340
656.208	15035.532
656.337	14909.170
656.465	14883.809
656.593	14864.787
656.721	14802.894
656.849	14805.787
656.977	14740.298
657.105	14699.809
657.233	14625.404
657.362	14651.277
657.490	14598.277
657.618	14605.106
657.746	14540.468
657.874	14499.723
658.002	14498.957
658.130	14427.894
658.258	14395.894
658.387	14381.766
658.515	14307.936
658.643	14304.915
658.771	14322.064
658.899	14381.170
659.027	14198.660
659.155	14230.787
659.283	14307.191
659.412	14151.745
659.540	14230.191
659.668	14080.957
659.796	14077.957
659.924	14123.660
660.052	13970.745
660.180	14018.957
660.308	14005.596
660.437	13949.213
660.565	13875.404
660.693	13854.319
660.821	13873.936
660.949	13870.319
661.077	13780.957
661.205	13802.787
661.333	13718.660
661.462	13823.383
661.590	13753.745
661.718	13905.957
661.846	13782.468
661.974	13857.362
662.102	13673.043
662.230	13655.255
662.358	13593.872
662.487	13598.574
662.615	13568.383
662.743	13566.596
662.871	13566.000
662.999	13505.745
663.127	13473.660
663.255	13615.915
663.383	13535.319
663.512	13469.617
663.640	13538.702
663.768	13473.617
663.896	13543.021
664.024	13487.404
664.152	13467.766
664.280	13515.809
664.408	13478.447
664.537	13495.000
664.665	13406.362
664.793	13372.638
664.921	13314.830
665.049	13339.723
665.177	13347.447
665.305	13347.851
665.433	13337.957
665.562	13291.723
665.690	13277.362
665.818	13487.617
665.946	13315.426
666.074	13241.872
666.202	13228.894
666.330	13272.872
666.458	13248.128
666.587	13208.936
666.715	13208.234
666.843	13202.255
666.971	13140.894
667.099	13136.362
667.227	13096.511
667.355	13115.234
667.483	13098.787
667.612	13171.404
667.740	13091.298
667.868	13130.872
667.996	13118.915
668.124	13017.106
668.252	13009.745
668.380	13001.660
668.508	12995.894
668.637	12969.468
668.765	12957.340
668.893	12994.426
669.021	12905.000
669.149	12915.511
669.277	12976.957
669.405	12852.851
669.533	12886.489
669.662	13136.447
669.790	12914.085
669.918	12902.128
670.046	12809.915
670.174	12895.149
670.302	12822.851
670.430	12763.553
670.558	12783.426
670.687	12684.596
670.815	12828.085
670.943	12674.553
671.071	12673.426
671.199	12594.979
671.327	12586.830
671.455	12610.915
671.583	12554.702
671.712	12646.809
671.840	12599.149
671.968	12435.638
672.096	12401.511
672.224	12355.000
672.352	12495.809
672.480	12293.064
672.608	12259.255
672.737	12228.723
672.865	12330.255
672.993	12151.000
673.121	12091.426
673.249	12051.638
673.377	12041.638
673.505	11977.638
673.633	11970.511
673.762	11880.872
673.890	11883.447
674.018	12103.106
674.146	11844.234
674.274	11782.660
674.402	11916.319
674.530	11776.426
674.658	11690.851
674.787	11682.362
674.915	11606.681
675.043	11709.617
675.171	11619.277
675.299	11586.340
675.427	11529.957
675.555	11415.681
675.683	11464.340
675.812	11412.277
675.940	11391.255
676.068	11338.000
676.196	11332.191
676.324	11307.064
676.452	11258.809
676.580	11157.170
676.708	11194.447
676.837	11183.574
676.965	11125.021
677.093	11091.681
677.221	11063.085
677.349	11089.660
677.477	11029.277
677.605	10997.021
677.733	10972.957
677.862	10864.936
677.990	10855.106
678.118	10834.957
678.246	10829.319
678.374	10858.191
678.502	10731.851
678.630	10743.681
678.758	10700.851
678.887	10654.298
679.015	10682.340
679.143	10612.745
679.271	10585.809
679.399	10646.043
679.527	10611.213
679.655	10506.298
679.783	10557.149
679.912	10591.383
680.040	10541.723
680.168	10523.489
680.296	10496.128
680.424	10363.277
680.552	10425.596
680.680	10527.128
680.808	10410.362
680.937	10381.638
681.065	10335.085
681.193	10346.872
681.321	10365.830
681.449	10313.532
681.577	10374.660
681.705	10350.447
681.833	10261.894
681.962	10242.830
682.090	10384.043
682.218	10241.957
682.346	10252.021
682.474	10216.064
682.602	10223.702
682.730	10227.191
682.858	10169.851
682.987	10235.936
683.115	10166.596
683.243	10130.638
683.371	10112.766
683.499	10145.021
683.627	10146.426
683.755	10122.766
683.883	10250.149
684.012	10081.511
684.140	10031.277
684.268	10007.191
684.396	10049.851
684.524	10047.170
684.652	10063.319
684.780	10057.553
684.908	10022.553
685.037	9968.979
685.165	9922.660
685.293	9904.447
685.421	10017.638
685.549	9914.255
685.677	9883.872
685.805	10031.957
685.933	9939.638
686.062	9804.915
686.190	9858.660
686.318	9852.489
686.446	9833.426
686.574	9808.277
686.702	9912.000
686.830	9744.553
686.958	9739.489
687.087	9726.511
687.215	9764.957
687.343	9688.298
687.471	9668.596
687.599	9695.681
687.727	9839.766
687.855	9662.000
687.983	9698.574
688.112	9718.936
688.240	9581.894
688.368	9596.213
688.496	9582.128
688.624	9636.191
688.752	9497.085
688.880	9549.638
689.008	9511.596
689.137	9508.234
689.265	9422.170
689.393	9442.319
689.521	9356.745
689.649	9369.745
689.777	9322.213
689.905	9333.936
690.033	9315.128
690.162	9267.340
690.290	9298.213
690.418	9223.638
690.546	9340.638
690.674	9307.043
690.802	9216.660
690.930	9203.106
691.058	9145.128
691.187	9181.681
691.315	9091.447
691.443	9157.255
691.571	9090.979
691.699	9050.000
691.827	9107.915
691.955	9035.489
692.083	9035.319
692.212	9126.213
692.340	8953.851
692.468	8930.404
692.596	8975.064
692.724	9095.298
692.852	8931.894
692.980	8945.234
693.108	8885.660
693.237	8827.447
693.365	8817.043
693.493	8731.043
693.621	8706.830
693.749	8771.426
693.877	8718.660
694.005	8795.404
694.133	8692.809
694.262	8734.553
694.390	8607.489
694.518	8627.766
694.646	8596.170
694.774	8592.298
694.902	8729.426
695.030	8682.830
695.158	8494.447
695.287	8547.830
695.415	8525.894
695.543	8485.702
695.671	8586.511
695.799	8489.511
695.927	8467.128
696.055	8435.553
696.183	8397.213
696.312	8405.426
696.440	8534.681
696.568	8447.191
696.696	8402.787
696.824	8349.851
696.952	8316.936
697.080	8343.809
697.208	8245.085
697.337	8331.617
697.465	8271.745
697.593	8198.340
697.721	8229.809
697.849	8235.064
697.977	8190.213
698.105	8251.489
698.233	8150.745
698.362	8185.064
698.490	8148.085
698.618	8148.979
698.746	8219.021
698.874	8111.234
699.002	8319.085
699.130	8099.596
699.258	8100.574
699.387	8004.489
699.515	8080.000
699.643	8021.191
699.771	8054.234
699.899	8026.787
700.027	8021.106
700.155	7922.277
700.283	7961.766
700.412	7944.936
700.540	7922.894
700.668	7920.362
700.796	7862.745
700.924	7857.702
701.052	7825.426
701.180	7940.191
701.308	7839.468
701.437	7750.043
701.565	7737.021
701.693	7707.979
701.821	7717.745
701.949	7685.170
702.077	7717.447
702.205	7612.574
702.333	7618.979
702.462	7617.936
702.590	7579.106
702.718	7553.170
702.846	7523.064
702.974	7486.085
703.102	7508.000
703.230	7556.830
703.358	7503.851
703.487	7398.213
703.615	7595.043
703.743	7378.043
703.871	7361.191
703.999	7340.043
704.127	7441.468
704.255	7241.426
704.383	7441.085
704.512	7238.830
704.640	7227.255
704.768	7175.085
704.896	7228.787
705.024	7154.213
705.152	7240.213
705.280	7085.681
705.408	7054.702
705.537	7061.064
705.665	7006.702
705.793	6985.489
705.921	6968.043
706.049	6968.681
706.177	6933.532
706.305	6919.426
706.433	6995.894
706.562	6892.872
706.690	6831.936
706.818	6801.872
706.946	7044.638
707.074	6811.809
707.202	6736.213
707.330	6801.191
707.458	6773.213
707.587	6701.936
707.715	6662.064
707.843	6764.723
707.971	6718.340
708.099	6737.617
708.227	6615.234
708.355	6648.255
708.483	6597.915
708.612	6575.511
708.740	6609.447
708.868	6666.128
708.996	6594.404
709.124	6599.340
709.252	6521.404
709.380	6488.362
709.508	6523.787
709.637	6494.170
709.765	6489.298
709.893	6487.191
710.021	6495.702
710.149	6458.894
710.277	6494.638
710.405	6380.277
710.533	6446.149
710.662	6394.468
710.790	6372.766
710.918	6384.043
711.046	6371.383
711.174	6368.745
711.302	6357.596
711.430	6427.830
711.558	6256.553
711.687	6313.298
711.815	6334.362
711.943	6291.617
712.071	6324.447
712.199	6359.213
712.327	6292.128
712.455	6220.553
712.583	6296.957
712.712	6233.085
712.840	6257.489
712.968	6247.957
713.096	6244.702
713.224	6176.085
713.352	6230.511
713.480	6174.170
713.608	6167.340
713.737	6204.489
713.865	6190.617
713.993	6242.106
714.121	6143.191
714.249	6185.298
714.377	6259.511
714.505	6188.383
714.633	6323.043
714.762	6214.277
714.890	6137.511
715.018	6166.383
715.146	6156.468
715.274	6202.021
715.402	6302.447
715.530	6175.702
715.658	6093.277
715.787	6124.638
715.915	6272.362
716.043	6060.021
716.171	6159.149
716.299	6169.957
716.427	6064.936
716.555	6020.511
716.683	6034.000
716.812	6039.702
716.940	6071.894
717.068	5979.000
717.196	6203.234
717.324	6123.213
717.452	6044.404
717.580	6025.234
717.708	5988.340
717.837	6044.149
717.965	5931.532
718.093	5959.340
718.221	5941.723
718.349	5954.936
718.477	5991.468
718.605	5943.234
718.733	5958.894
718.862	5894.149
718.990	5902.213
719.118	5913.872
719.246	5849.106
719.374	5954.660
719.502	5920.447
719.630	5986.915
719.758	5774.170
719.887	5794.723
720.015	5973.340
720.143	5784.340
720.271	5749.957
720.399	5791.745
720.527	5816.447
720.655	5850.553
720.783	5830.766
720.912	5719.638
721.040	5712.723
721.168	5668.404
721.296	5751.426
721.424	5705.255
721.552	5624.021
721.680	5631.277
721.808	5653.468
721.937	5629.915
722.065	5720.106
722.193	5734.021
722.321	5594.574
722.449	5568.894
722.577	5583.745
722.705	5543.638
722.833	5569.021
722.962	5575.064
723.090	5501.426
723.218	5455.596
723.346	5477.191
723.474	5445.766
723.602	5591.021
723.730	5523.915
723.858	5590.362
723.987	5492.128
724.115	5538.851
724.243	5436.319
724.371	5433.894
724.499	5421.085
724.627	5355.085
724.755	5344.319
724.883	5344.277
725.012	5344.085
725.140	5378.319
725.268	5324.957
725.396	5273.404
725.524	5225.638
725.652	5288.468
725.780	5289.298
725.908	5321.213
726.037	5409.255
726.165	5233.277
726.293	5236.532
726.421	5229.894
726.549	5203.787
726.677	5202.000
726.805	5166.128
726.933	5166.106
727.062	5209.745
727.190	5201.489
727.318	5125.277
727.446	5150.915
727.574	5131.851
727.702	5242.894
727.830	5093.213
727.958	5184.617
728.087	5130.021
728.215	5193.979
728.343	5156.362
728.471	5048.404
728.599	5039.660
728.727	5168.319
728.855	5052.277
728.983	5039.085
729.112	5052.021
729.240	4983.489
729.368	5035.511
729.496	5054.830
729.624	5013.447
729.752	4992.851
729.880	5008.191
730.008	4967.191
730.137	4964.362
730.265	5136.787
730.393	4961.319
730.521	5056.362
730.649	4946.213
730.777	4982.149
730.905	4945.617
731.033	5031.617
731.162	5176.766
731.290	5084.383
731.418	5162.064
731.546	5091.128
731.674	5017.872
731.802	5024.277
731.930	4930.830
732.058	4886.106
732.187	4869.745
732.315	4912.234
732.443	4898.809
732.571	5053.043
732.699	4957.596
732.827	4916.277
732.955	4880.851
733.083	4848.085
733.212	4932.553
733.340	4928.106
733.468	4955.851
733.596	4835.830
733.724	4892.894
733.852	4845.723
733.980	4866.872
734.108	5067.362
734.237	4960.787
734.365	4966.191
734.493	4873.915
734.621	4835.106
734.749	4862.617
734.877	4868.106
735.005	4916.979
735.133	4963.830
735.262	4956.489
735.390	4859.872
735.518	4991.660
735.646	4840.468
735.774	4837.638
735.902	4850.638
736.030	4789.489
736.158	4896.489
736.287	4774.447
736.415	5002.277
736.543	4834.936
736.671	4807.979
736.799	4814.745
736.927	4859.851
737.055	4853.021
737.183	4916.511
737.312	4912.447
737.440	4870.426
737.568	4842.319
737.696	4771.553
737.824	4838.511
737.952	4845.851
738.080	4788.809
738.208	4871.362
738.337	4834.872
738.465	4872.617
738.593	4783.809
738.721	4772.277
738.849	4806.660
738.977	4780.362
739.105	4860.000
739.233	4756.872
739.362	4800.723
739.490	4740.426
739.618	4735.851
739.746	4747.574
739.874	4924.213
740.002	4889.574
740.130	4837.213
740.258	4726.128
740.387	4703.362
740.515	4838.894
740.643	4689.660
740.771	4722.787
740.899	4712.723
741.027	4749.702
741.155	4803.553
741.283	4641.511
741.412	4637.447
741.540	4704.809
741.668	4761.957
741.796	4799.000
741.924	4709.298
742.052	4642.553
742.180	4804.404
742.308	4647.660
742.437	4652.574
742.565	4745.383
742.693	4808.702
742.821	4720.809
742.949	4688.830
743.077	4598.915
743.205	4585.574
743.333	4638.915
743.462	4602.957
743.590	4625.766
743.718	4569.787
743.846	4577.383
743.974	4615.468
744.102	4718.766
744.230	4603.872
744.358	4544.340
744.487	4531.979
744.615	4573.787
744.743	4484.064
744.871	4491.638
744.999	4549.383
745.127	4577.809
745.255	4465.064
745.383	4485.277
745.512	4542.277
745.640	4452.553
745.768	4457.149
745.896	4480.702
746.024	4445.745
746.152	4453.426
746.280	4424.489
746.408	4487.809
746.537	4553.574
746.665	4440.277
746.793	4461.532
746.921	4372.021
747.049	4569.468
747.177	4468.894
747.305	4422.021
747.433	4443.298
747.562	4365.000
747.690	4415.447
747.818	4419.255
747.946	4336.532
748.074	4464.851
748.202	4377.723
748.330	4452.511
748.458	4356.681
748.587	4309.298
748.715	4286.128
748.843	4339.255
748.971	4334.021
749.099	4310.021
749.227	4331.191
749.355	4273.255
749.483	4281.319
749.612	4280.298
749.740	4343.574
749.868	4319.128
749.996	4288.638
750.124	4219.277
750.252	4244.489
750.380	4248.809
750.508	4254.894
750.637	4244.596
750.765	4305.617
750.893	4201.553
751.021	4196.085
751.149	4401.213
751.277	4269.809
751.405	4268.000
751.533	4322.872
751.662	4307.021
751.790	4274.213
751.918	4267.851
752.046	4199.319
752.174	4146.149
752.302	4349.106
752.430	4213.255
752.558	4147.553
752.687	4121.000
752.815	4120.234
752.943	4271.277
753.071	4204.447
753.199	4108.723
753.327	4158.574
753.455	4261.191
753.583	4120.298
753.712	4137.596
753.840	4084.085
753.968	4150.745
754.096	4031.617
754.224	4036.277
754.352	3997.191
754.480	4012.872
754.608	4014.574
754.737	3987.872
754.865	4112.255
754.993	4002.277
755.121	3942.638
755.249	4024.298
755.377	3982.894
755.505	3922.553
755.633	3962.085
755.762	3900.213
755.890	4052.766
756.018	4061.851
756.146	4012.681
756.274	3936.319
756.402	3863.681
756.530	3899.979
756.658	3857.915
756.787	3895.830
756.915	3827.298
757.043	3912.553
757.171	3851.787
757.299	3775.213
757.427	3819.383
757.555	3771.681
757.683	3835.362
757.812	3732.660
757.940	3777.596
758.068	3870.298
758.196	3894.723
758.324	3714.085
758.452	3818.936
758.580	3822.170
758.708	3693.936
758.837	3654.404
758.965	3726.191
759.093	3790.277
759.221	3584.319
759.349	3623.574
759.477	3745.426
759.605	3647.298
759.733	3570.468
759.862	3605.106
759.990	3512.511
760.118	3515.319
760.246	3468.596
760.374	3657.000
760.502	3485.532
760.630	3479.809
760.758	3479.298
760.887	3412.362
761.015	3511.766
761.143	3411.085
761.271	3395.894
761.399	3362.553
761.527	3325.872
761.655	3421.936
761.783	3343.723
761.912	3296.277
762.040	3308.596
762.168	3366.191
762.296	3291.298
762.424	3223.638
762.552	3305.298
762.680	3358.915
762.808	3247.021
762.937	3188.894
763.065	3286.532
763.193	3263.340
763.321	3176.723
763.449	3206.106
763.577	3119.511
763.705	3117.787
763.833	3216.553
763.962	3167.170
764.090	3226.830
764.218	3097.979
764.346	3135.426
764.474	3054.660
764.602	3049.149
764.730	3072.957
764.858	3173.766
764.987	3023.511
765.115	3105.340
765.243	3103.255
765.371	3025.426
765.499	3034.532
765.627	2959.851
765.755	3029.170
765.883	3109.404
766.012	2986.383
766.140	2957.447
766.268	2953.660
766.396	3037.872
766.524	2937.915
766.652	2958.085
766.780	2930.766
766.908	3002.936
767.037	2868.191
767.165	2907.191
767.293	2970.638
767.421	3076.128
767.549	2937.021
767.677	2933.106
767.805	2881.426
767.933	2887.319
768.062	2898.809
768.190	3035.106
768.318	2871.915
768.446	2935.319
768.574	2931.000
768.702	2900.170
768.830	2862.809
768.958	2896.809
769.087	2817.851
769.215	2835.319
769.343	2914.234
769.471	2832.532
769.599	2908.319
769.727	2836.872
769.855	2825.340
769.983	2816.149
770.112	2800.234
770.240	2801.681
770.368	2798.021
770.496	2820.043
770.624	2859.596
770.752	2843.043
770.880	2848.681
771.008	2850.468
771.137	2760.255
771.265	2827.957
771.393	2786.489
771.521	2822.553
771.649	2760.766
771.777	2788.170
771.905	2769.915
772.033	2790.106
772.162	2980.745
772.290	2814.383
772.418	2823.532
772.546	2779.617
772.674	2759.340
772.802	2756.979
772.930	2780.085
773.058	2900.745
773.187	2748.979
773.315	2732.085
773.443	2733.723
773.571	2732.766
773.699	2732.340
773.827	2721.596
773.955	2749.362
774.083	2883.064
774.212	2729.149
774.340	2769.383
774.468	2707.511
774.596	2764.298
774.724	2707.532
774.852	2783.404
774.980	2718.872
775.108	2689.574
775.237	2720.894
775.365	2663.000
775.493	2661.511
775.621	2695.191
775.749	2690.064
775.877	2666.383
776.005	2655.851
776.133	2691.489
776.262	2664.383
776.390	2632.447
776.518	2691.489
776.646	2637.979
776.774	2671.915
776.902	2624.149
777.030	2653.426
777.158	2610.213
777.287	2639.553
777.415	2623.064
777.543	2606.638
777.671	2602.681
777.799	2574.085
777.927	2593.383
778.055	2714.319
778.183	2593.298
778.312	2538.298
778.440	2556.447
778.568	2605.851
778.696	2567.660
778.824	2657.574
778.952	2550.149
779.080	2550.979
779.208	2591.064
779.337	2546.936
779.465	2528.979
779.593	2597.213
779.721	2524.383
779.849	2587.106
779.977	2519.830
780.105	2509.319
780.233	2524.170
780.362	2512.745
780.490	2532.191
780.618	2498.277
780.746	2517.745
780.874	2548.957
781.002	2525.255
781.130	2522.298
781.258	2496.468
781.387	2489.255
781.515	2474.064
781.643	2459.447
781.771	2486.383
781.899	2492.596
782.027	2509.234
782.155	2460.830
782.283	2439.404
782.412	2420.574
782.540	2450.915
782.668	2471.766
782.796	2423.255
782.924	2433.915
783.052	2412.489
783.180	2435.894
783.308	2420.085
783.437	2416.170
783.565	2399.723
783.693	2411.936
783.821	2400.638
783.949	2367.489
784.077	2399.681
784.205	2376.340
784.333	2423.255
784.462	2329.872
784.590	2339.766
784.718	2336.809
784.846	2317.660
784.974	2358.532
785.102	2361.511
785.230	2329.404
785.358	2358.170
785.487	2322.383
785.615	2304.170
785.743	2291.957
785.871	2325.574
785.999	2274.957
786.127	2260.532
786.255	2284.277
786.383	2297.830
786.512	2274.745
786.640	2251.574
786.768	2277.787
786.896	2229.745
787.024	2222.872
787.152	2229.170
787.280	2210.298
787.408	2210.617
787.537	2230.660
787.665	2174.574
787.793	2212.957
787.921	2187.149
788.049	2189.553
788.177	2143.149
788.305	2154.638
788.433	2198.000
788.562	2128.106
788.690	2151.936
788.818	2139.191
788.946	2130.277
789.074	2117.617
789.202	2116.872
789.330	2132.489
789.458	2091.021
789.587	2123.723
789.715	2088.638
789.843	2085.191
789.971	2088.894
790.099	2067.702
790.227	2067.340
790.355	2056.128
790.483	2070.149
790.612	2036.000
790.740	2031.085
790.868	2012.234
790.996	2007.383
791.124	1995.213
791.252	2003.426
791.380	2013.617
791.508	1976.340
791.637	1956.426
791.765	1925.404
791.893	1953.106
792.021	1957.085
792.149	1939.489
792.277	1935.000
792.405	1897.255
792.533	1937.298
792.662	1899.957
792.790	1880.915
792.918	1908.830
793.046	1882.660
793.174	1907.660
793.302	1871.766
793.430	1857.787
793.558	1840.936
793.687	1841.553
793.815	1844.468
793.943	1841.000
794.071	1829.021
794.199	1802.660
794.327	1806.255
794.455	1863.872
794.583	1877.106
794.712	1759.298
794.840	1757.574
794.968	1775.638
795.096	1787.149
795.224	1723.830
795.352	1735.681
795.480	1747.362
795.608	1726.064
795.737	1712.638
795.865	1691.660
795.993	1683.128
796.121	1662.787
796.249	1683.660
796.377	1671.787
796.505	1657.106
796.633	1629.426
796.762	1625.574
796.890	1646.872
797.018	1644.532
797.146	1611.298
797.274	1577.617
797.402	1600.085
797.530	1607.128
797.658	1562.362
797.787	1600.787
797.915	1565.234
798.043	1573.979
798.171	1538.426
798.299	1544.128
798.427	1525.213
798.555	1535.255
798.683	1494.660
798.812	1510.745
798.940	1568.468
799.068	1492.915
799.196	1516.128
799.324	1476.574
799.452	1481.000
799.580	1464.319
799.708	1507.298
799.837	1440.787
799.965	1448.702
800.093	1446.191
800.221	1400.574
800.349	1435.362
800.477	1423.660
800.605	1428.809
800.733	1433.085
800.862	1404.660
800.990	1418.489
801.118	1367.149
801.246	1381.319
801.374	1364.894
801.502	1361.234
801.630	1342.021
801.758	1360.447
801.887	1366.745
802.015	1338.021
802.143	1309.362
802.271	1349.277
802.399	1322.511
802.527	1285.979
802.655	1323.830
802.783	1359.660
802.912	1298.362
803.040	1273.213
803.168	1262.021
803.296	1235.106
803.424	1274.170
803.552	1255.021
803.680	1235.255
803.808	1253.489
803.937	1247.298
804.065	1229.468
804.193	1228.191
804.321	1276.681
804.449	1212.021
804.577	1208.766
804.705	1207.298
804.833	1233.830
804.962	1191.745
805.090	1185.723
805.218	1194.936
805.346	1177.191
805.474	1189.957
805.602	1176.128
805.730	1157.234
805.858	1155.106
805.987	1147.638
806.115	1151.149
806.243	1154.064
806.371	1168.298
806.499	1219.787
806.627	1236.702
806.755	1225.340
806.883	1124.723
807.012	1104.787
807.140	1127.979
807.268	1115.511
807.396	1099.702
807.524	1069.277
807.652	1086.362
807.780	1140.021
807.908	1076.000
808.037	1113.660
808.165	1095.809
808.293	1070.191
808.421	1097.702
808.549	1035.511
808.677	1043.426
808.805	1098.213
808.933	1045.085
809.062	1040.723
809.190	1086.702
809.318	1030.511
809.446	1020.383
809.574	1066.340
809.702	1007.468
809.830	1019.489
809.958	1006.766
810.087	1019.085
810.215	1035.787
810.343	998.787
810.471	1000.617
810.599	973.000
810.727	972.574
810.855	961.021
810.983	957.426
811.112	985.681
811.240	960.277
811.368	960.660
811.496	999.383
811.624	966.936
811.752	933.340
811.880	945.362
812.008	916.149
812.137	952.830
812.265	905.043
812.393	940.277
812.521	953.489
812.649	924.085
812.777	915.000
812.905	944.106
813.033	894.106
813.162	893.000
813.290	883.447
813.418	901.766
813.546	881.553
813.674	870.745
813.802	881.596
813.930	857.255
814.058	869.596
814.187	875.723
814.315	856.511
814.443	870.298
814.571	868.447
814.699	873.383
814.827	856.638
814.955	838.213
815.083	862.766
815.212	856.064
815.340	863.702
815.468	828.957
815.596	834.532
815.724	831.511
815.852	815.191
815.980	817.021
816.108	799.681
816.237	806.106
816.365	806.149
816.493	805.128
816.621	800.106
816.749	793.574
816.877	797.404
817.005	811.021
817.133	797.319
817.262	759.277
817.390	775.979
817.518	761.277
817.646	761.787
817.774	758.830
817.902	748.362
818.030	746.553
818.158	782.787
818.287	764.000
818.415	744.021
818.543	740.319
818.671	760.936
818.799	721.255
818.927	740.851
819.055	738.426
819.183	712.851
819.312	717.191
819.440	713.660
819.568	704.681
819.696	713.468
819.824	716.085
819.952	684.596
820.080	703.085
820.208	693.383
820.337	676.255
820.465	718.979
820.593	687.106
820.721	674.894
820.849	687.702
820.977	676.489
821.105	683.170
821.233	644.298
821.362	689.000
821.490	644.489
821.618	645.872
821.746	654.319
821.874	655.553
822.002	641.872
822.130	633.574
822.258	619.000
822.387	633.404
822.515	644.723
822.643	645.468
822.771	647.957
822.899	626.745
823.027	663.872
823.155	610.723
823.283	605.872
823.412	617.426
823.540	607.362
823.668	659.511
823.796	606.766
823.924	636.532
824.052	629.702
824.180	615.191
824.308	599.298
824.437	585.979
824.565	582.340
824.693	612.532
824.821	597.404
824.949	594.149
825.077	580.319
825.205	604.851
825.333	595.362
825.462	599.340
825.590	577.447
825.718	592.277
825.846	572.617
825.974	550.340
826.102	551.872
826.230	543.553
826.358	558.787
826.487	540.319
826.615	594.213
826.743	538.043
826.871	561.298
826.999	592.021
827.127	550.617
827.255	541.298
827.383	531.723
827.512	560.043
827.640	521.000
827.768	523.191
827.896	538.532
828.024	519.085
828.152	531.894
828.280	523.957
828.408	519.277
828.537	517.149
828.665	516.064
828.793	518.851
828.921	498.021
829.049	528.830
829.177	502.064
829.305	501.319
829.433	511.447
829.562	518.362
829.690	489.000
829.818	518.894
829.946	501.340
830.074	499.851
830.202	508.128
830.330	515.043
830.458	535.191
830.587	489.979
830.715	490.574
830.843	476.830
830.971	489.234
831.099	504.702
831.227	478.638
831.355	473.383
831.483	487.745
831.612	500.787
831.740	469.191
831.868	476.043
831.996	472.936
832.124	468.170
832.252	454.872
832.380	479.383
832.508	509.340
832.637	461.532
832.765	457.021
832.893	483.915
833.021	445.979
833.149	439.787
833.277	450.851
833.405	437.574
833.533	433.404
833.662	452.085
833.790	432.255
833.918	451.489
834.046	479.213
834.174	443.085
834.302	439.447
834.430	430.340
834.558	433.766
834.687	445.957
834.815	420.830
834.943	434.191
835.071	430.085
835.199	433.702
835.327	450.128
835.455	419.830
835.583	456.021
835.712	406.340
835.840	418.319
835.968	419.191
836.096	465.979
836.224	422.596
836.352	404.511
836.480	421.766
836.608	409.426
836.737	406.660
836.865	405.915
836.993	417.277
837.121	415.255
837.249	390.149
837.377	427.574
837.505	412.298
837.633	402.426
837.762	399.021
837.890	427.000
838.018	430.000
838.146	432.426
838.274	418.979
838.402	410.830
838.530	386.021
838.658	373.255
838.787	396.851
838.915	387.681
839.043	374.809
839.171	405.213
839.299	370.340
839.427	385.064
839.555	385.702
839.683	397.277
839.812	405.043
839.940	366.468
840.068	396.298
840.196	387.149
840.324	377.766
840.452	375.574
840.580	404.319
840.708	371.255
840.837	404.553
840.965	353.894
841.093	368.979
841.221	367.681
841.349	365.830
841.477	379.681
841.605	375.553
841.733	365.085
841.862	368.340
841.990	413.957
842.118	346.255
842.246	349.489
842.374	353.766
842.502	338.426
842.630	373.340
842.758	374.234
842.887	346.553
843.015	356.277
843.143	378.681
843.271	363.532
843.399	385.085
843.527	361.702
843.655	329.149
843.783	341.660
843.912	345.511
844.040	372.851
844.168	326.213
844.296	333.872
844.424	331.255
844.552	350.489
844.680	358.851
844.808	360.043
844.937	338.000
845.065	339.149
845.193	358.489
845.321	342.064
845.449	332.404
845.577	338.745
845.705	329.553
845.833	327.255
845.962	341.213
846.090	326.213
846.218	339.362
846.346	336.426
846.474	338.021
846.602	333.489
846.730	367.362
846.858	344.936
846.987	333.872
847.115	315.340
847.243	346.553
847.371	351.489
847.499	339.255
847.627	325.830
847.755	316.277
847.883	329.638
848.012	332.191
848.140	326.085
848.268	332.021
848.396	309.872
848.524	343.021
848.652	296.809
848.780	323.638
848.908	320.043
849.037	312.553
849.165	326.213
849.293	327.511
849.421	330.383
849.549	323.766
849.677	315.957
849.805	316.298
849.933	312.362
850.062	311.511
850.190	314.787
850.318	317.617
850.446	302.106
850.574	302.638
850.702	307.511
850.830	312.766
850.958	325.191
851.087	291.723
851.215	311.383
851.343	308.298
851.471	302.021
851.599	311.979
851.727	309.511
851.855	355.723
851.983	308.787
852.112	304.128
852.240	295.234
852.368	301.319
852.496	295.638
852.624	294.660
852.752	297.128
852.880	277.106
853.008	297.723
853.137	307.170
853.265	316.319
853.393	297.170
853.521	303.936
853.649	301.872
853.777	292.170
853.905	299.851
854.033	288.489
854.162	353.766
854.290	296.723
854.418	282.064
854.546	286.106
854.674	397.447
854.802	289.234
854.930	279.723
855.058	272.447
855.187	283.340
855.315	309.362
855.443	271.979
855.571	281.191
855.699	287.021
855.827	275.255
855.955	281.766
856.083	280.128
856.212	294.298
856.340	277.319
856.468	330.894
856.596	306.681
856.724	289.468
856.852	285.830
856.980	280.106
857.108	293.617
857.237	274.787
857.365	300.681
857.493	276.894
857.621	268.277
857.749	275.809
857.877	287.362
858.005	296.362
858.133	275.255
858.262	277.043
858.390	265.511
858.518	260.277
858.646	268.872
858.774	266.745
858.902	253.511
859.030	276.426
859.158	277.957
859.287	284.298
859.415	301.447
859.543	260.234
859.671	259.830
859.799	288.191
859.927	278.340
860.055	263.894
860.183	280.085
860.312	270.957
860.440	278.511
860.568	274.255
860.696	254.128
860.824	333.362
860.952	314.532
861.080	277.809
861.208	271.085
861.337	275.319
861.465	293.787
861.593	293.809
861.721	263.064
861.849	263.766
861.977	254.404
862.105	274.298
862.233	296.128
862.362	282.915
862.490	287.851
862.618	251.277
862.746	268.660
862.874	258.000
863.002	258.149
863.130	288.000
863.258	268.532
863.387	275.638
863.515	277.723
863.643	269.468
863.771	330.489
863.899	263.809
864.027	252.447
864.155	257.553
864.283	285.766
864.412	261.745
864.540	260.745
864.668	254.596
864.796	260.447
864.924	267.170
865.052	269.979
865.180	251.617
865.308	238.723
865.437	267.830
865.565	260.681
865.693	290.915
865.821	262.681
865.949	279.979
866.077	260.106
866.205	265.383
866.333	273.915
866.462	244.447
866.590	264.277
866.718	272.745
866.846	255.489
866.974	269.170
867.102	271.872
867.230	295.000
867.358	263.553
867.487	252.766
867.615	279.638
867.743	255.404
867.871	263.681
867.999	261.085
868.127	256.298
868.255	306.894
868.383	307.149
868.512	251.064
868.640	250.681
868.768	245.532
868.896	235.447
869.024	280.787
869.152	255.745
869.280	257.255
869.408	296.830
869.537	249.255
869.665	315.191
869.793	243.766
869.921	286.787
870.049	259.894
870.177	263.532
870.305	292.128
870.433	240.766
870.562	265.702
870.690	242.638
870.818	244.383
870.946	262.426
871.074	286.234
871.202	263.064
871.330	273.574
871.458	230.574
871.587	252.021
871.715	252.532
871.843	251.532
871.971	241.596
872.099	251.255
872.227	241.809
872.355	262.234
872.483	257.319
872.612	259.298
872.740	260.574
872.868	245.426
872.996	251.277
873.124	242.723
873.252	249.170
873.380	243.128
873.508	232.489
873.637	261.021
873.765	246.340
873.893	297.681
874.021	253.021
874.149	249.489
874.277	253.128
874.405	243.532
874.533	241.638
874.662	1151.426
874.790	246.617
874.918	284.830
875.046	273.872
875.174	266.638
875.302	233.660
875.430	285.298
875.558	257.404
875.687	267.170
875.815	246.000
875.943	238.936
876.071	260.468
876.199	279.532
876.327	282.489
876.455	247.319
876.583	271.660
876.712	243.702
876.840	259.106
876.968	288.106
877.096	241.809
877.224	233.106
877.352	298.213
877.480	237.766
877.608	247.043
877.737	260.149
877.865	238.426
877.993	263.809
878.121	220.915
878.249	237.787
878.377	237.191
878.505	251.915
878.633	251.298
878.762	246.617
878.890	238.128
879.018	299.383
879.146	248.000
879.274	231.234
879.402	263.043
879.530	256.745
879.658	232.213
879.787	245.723
879.915	231.809
880.043	273.340
880.171	223.830
880.299	256.128
880.427	248.426
880.555	246.468
880.683	264.532
880.812	229.553
880.940	264.660
881.068	225.660
881.196	243.596
881.324	254.638
881.452	235.723
881.580	258.511
881.708	260.851
881.837	252.404
881.965	250.851
882.093	255.277
882.221	234.979
882.349	276.702
882.477	261.936
882.605	257.149
882.733	228.745
882.862	281.830
882.990	255.936
883.118	235.532
883.246	247.064
883.374	239.340
883.502	242.979
883.630	226.830
883.758	238.745
883.887	248.638
884.015	226.319
884.143	244.298
884.271	250.617
884.399	230.915
884.527	238.936
884.655	223.787
884.783	250.404
884.912	254.809
885.040	236.085
885.168	302.404
885.296	233.106
885.424	247.043
885.552	257.915
885.680	238.340
885.808	231.106
885.937	246.106
886.065	257.596
886.193	235.340
886.321	274.191
886.449	234.638
886.577	279.085
886.705	235.851
886.833	228.596
886.962	228.617
887.090	238.723
887.218	241.043
887.346	250.170
887.474	275.000
887.602	250.255
887.730	249.426
887.858	258.191
887.987	230.298
888.115	275.723
888.243	252.511
888.371	249.404
888.499	235.404
888.627	253.255
888.755	252.851
888.883	239.234
889.012	232.553
889.140	239.298
889.268	263.915
889.396	253.936
889.524	240.809
889.652	224.426
889.780	220.298
889.908	260.957
890.037	235.447
890.165	236.340
890.293	258.340
890.421	292.426
890.549	245.085
890.677	237.809
890.805	226.809
890.933	262.340
891.062	235.404
891.190	236.745
891.318	246.830
891.446	239.532
891.574	224.319
891.702	231.085
891.830	231.340
891.958	274.064
892.087	274.255
892.215	241.447
892.343	245.574
892.471	252.617
892.599	235.298
892.727	261.447
892.855	233.362
892.983	231.660
893.112	232.681
893.240	223.936
893.368	262.064
893.496	239.468
893.624	243.383
893.752	299.106
893.880	281.021
894.008	219.128
894.137	249.000
894.265	248.468
894.393	238.872
894.521	236.872
894.649	260.915
894.777	238.128
894.905	222.064
895.033	265.426
895.162	230.872
895.290	273.596
895.418	248.872
895.546	251.043
895.674	316.085
895.802	232.404
895.930	257.319
896.058	217.702
896.187	225.532
896.315	225.426
896.443	223.851
896.571	232.574
896.699	238.468
896.827	251.234
896.955	250.085
897.083	228.915
897.212	280.043
897.340	237.319
897.468	216.128
897.596	230.660
897.724	272.064
897.852	244.128
897.980	233.383
898.108	237.468
898.237	232.426
898.365	229.426
898.493	241.830
898.621	237.681
898.749	237.468
898.877	248.106
899.005	216.319
899.133	230.021
899.262	245.915
899.390	273.553
899.518	237.064
899.646	229.830
899.774	259.447
899.902	314.468
900.030	249.830
900.158	241.638
900.287	253.404
900.415	220.298
900.543	236.426
900.671	231.447
900.799	259.362
900.927	219.426
901.055	221.809
901.183	237.851
901.312	257.298
901.440	253.745
901.568	250.213
901.696	240.234
901.824	246.170
901.952	250.723
902.080	351.298
902.208	267.660
902.337	222.787
902.465	245.277
902.593	236.894
902.721	239.660
902.849	244.383
902.977	247.553
903.105	237.000
903.233	250.915
903.362	238.957
903.490	252.234
903.618	238.106
903.746	247.213
903.874	224.894
904.002	243.745
904.130	243.468
904.258	253.489
904.387	237.936
904.515	258.043
904.643	214.596
904.771	233.894
904.899	247.702
905.027	264.383
905.155	246.553
905.283	243.213
905.412	260.404
905.540	232.000
905.668	232.489
905.796	236.340
905.924	243.957
906.052	241.979
906.180	257.489
906.308	246.319
906.437	267.277
906.565	244.340
906.693	241.638
906.821	220.979
906.949	236.851
907.077	253.064
907.205	238.915
907.333	242.319
907.462	236.702
907.590	233.638
907.718	260.085
907.846	279.085
907.974	235.447
908.102	239.021
908.230	265.106
908.358	278.362
908.487	249.213
908.615	248.404
908.743	248.596
908.871	298.681
908.999	239.128
909.127	274.170
909.255	219.255
909.383	238.681
909.512	277.702
909.640	243.149
909.768	243.447
909.896	286.000
910.024	262.787
910.152	249.106
910.280	287.468
910.408	239.043
910.537	247.872
910.665	272.213
910.793	252.340
910.921	256.894
911.049	240.915
911.177	230.383
911.305	261.830
911.433	250.043
911.562	241.787
911.690	253.574
911.818	300.426
911.946	248.447
912.074	262.404
912.202	281.277
912.330	245.787
912.458	249.128
912.587	262.426
912.715	263.681
912.843	270.085
912.971	262.702
913.099	285.723
913.227	265.404
913.355	248.872
913.483	268.638
913.612	266.319
913.740	385.213
913.868	262.000
