0pol_70_130_at_750.00nm_cut_at_984.50Y_01.dat
24.04.2023
10:55:36
cut middle at Y: 984.50
top cursor: 1008 down cursor: 961 mean of: 47 lines , 2560 datapoints
wavelength(nm)	intensity[arb. units]
585.996	11782.106
586.124	11488.574
586.252	11458.851
586.380	11474.404
586.508	11512.936
586.637	11560.723
586.765	11653.298
586.893	11670.553
587.021	11702.426
587.149	11800.809
587.277	11709.404
587.405	11788.574
587.533	11758.809
587.662	11927.255
587.790	11913.021
587.918	11779.511
588.046	11830.766
588.174	11738.404
588.302	11882.085
588.430	11828.447
588.558	11783.511
588.687	11868.957
588.815	11786.702
588.943	11822.915
589.071	11850.596
589.199	11841.787
589.327	11854.021
589.455	11778.213
589.583	11912.128
589.712	11956.404
589.840	11851.255
589.968	11839.319
590.096	11862.213
590.224	11878.851
590.352	11930.936
590.480	11877.426
590.608	11910.000
590.737	12031.213
590.865	12008.000
590.993	11881.596
591.121	11936.638
591.249	11985.872
591.377	11949.043
591.505	11973.936
591.633	12021.468
591.762	11973.234
591.890	12112.085
592.018	11968.617
592.146	11988.809
592.274	12017.574
592.402	11998.979
592.530	12055.596
592.658	12323.936
592.787	12095.809
592.915	12303.787
593.043	12159.191
593.171	12179.170
593.299	12265.298
593.427	12266.660
593.555	12275.362
593.683	12289.234
593.812	12359.532
593.940	12346.170
594.068	12421.085
594.196	12473.426
594.324	12512.553
594.452	12494.213
594.580	12590.915
594.708	12565.617
594.837	12536.234
594.965	12729.872
595.093	12726.106
595.221	12743.702
595.349	12863.043
595.477	12808.681
595.605	12797.085
595.733	12768.085
595.862	12994.426
595.990	12879.574
596.118	12903.340
596.246	13022.426
596.374	12964.128
596.502	12945.234
596.630	13013.447
596.758	12957.319
596.887	12950.617
597.015	13015.234
597.143	13019.723
597.271	13022.277
597.399	12978.106
597.527	13016.170
597.655	13038.255
597.783	13037.383
597.912	13010.681
598.040	13028.149
598.168	13103.064
598.296	13029.936
598.424	12970.915
598.552	13096.574
598.680	13013.809
598.808	13113.170
598.937	13056.043
599.065	12989.957
599.193	13012.660
599.321	13084.085
599.449	12953.872
599.577	13013.170
599.705	13058.979
599.833	12982.894
599.962	13032.660
600.090	13049.957
600.218	13065.553
600.346	13157.681
600.474	13097.766
600.602	13070.511
600.730	13166.638
600.858	13165.170
600.987	13310.574
601.115	13201.745
601.243	13266.553
601.371	13263.766
601.499	13356.681
601.627	13382.638
601.755	13394.638
601.883	13480.596
602.012	13470.915
602.140	13476.702
602.268	13670.957
602.396	13570.191
602.524	13665.574
602.652	13636.617
602.780	13712.234
602.908	13769.043
603.037	13852.447
603.165	13814.447
603.293	13880.468
603.421	13888.574
603.549	13943.957
603.677	14048.681
603.805	14036.979
603.933	14110.191
604.062	14226.319
604.190	14221.149
604.318	14232.383
604.446	14358.511
604.574	14385.340
604.702	14446.277
604.830	14459.553
604.958	14432.298
605.087	14563.915
605.215	14581.128
605.343	14566.830
605.471	14617.638
605.599	14690.362
605.727	14688.574
605.855	14734.319
605.983	14709.277
606.112	14807.489
606.240	14719.957
606.368	14718.894
606.496	14965.191
606.624	14816.681
606.752	14897.638
606.880	15011.340
607.008	15056.149
607.137	15022.638
607.265	14816.574
607.393	14893.872
607.521	14993.447
607.649	14883.957
607.777	14906.106
607.905	14995.170
608.033	14898.191
608.162	14933.617
608.290	14939.638
608.418	14879.404
608.546	14978.085
608.674	14890.702
608.802	14899.723
608.930	14857.426
609.058	14949.511
609.187	14984.170
609.315	15034.936
609.443	14934.915
609.571	15014.000
609.699	14918.872
609.827	14948.511
609.955	14945.064
610.083	14950.447
610.212	14891.979
610.340	14878.702
610.468	14967.617
610.596	14982.979
610.724	14976.106
610.852	14926.319
610.980	14989.340
611.108	15033.830
611.237	14958.957
611.365	14950.404
611.493	14978.553
611.621	15004.000
611.749	15068.745
611.877	15076.532
612.005	15061.468
612.133	15116.191
612.262	15119.043
612.390	15125.660
612.518	15222.830
612.646	15284.787
612.774	15252.021
612.902	15254.809
613.030	15350.340
613.158	15487.681
613.287	15444.021
613.415	15398.128
613.543	15391.340
613.671	15366.553
613.799	15462.043
613.927	15364.085
614.055	15467.383
614.183	15559.596
614.312	15439.191
614.440	15607.532
614.568	15599.511
614.696	15624.000
614.824	15827.511
614.952	15662.979
615.080	15719.745
615.208	15794.979
615.337	15853.596
615.465	15853.106
615.593	16001.362
615.721	16202.872
615.849	16218.128
615.977	16197.915
616.105	16205.404
616.233	16091.745
616.362	16189.574
616.490	16207.894
616.618	16256.766
616.746	16262.702
616.874	16317.149
617.002	16270.830
617.130	16340.468
617.258	16505.766
617.387	16385.191
617.515	16392.979
617.643	16410.064
617.771	16455.000
617.899	16491.851
618.027	16411.489
618.155	16545.894
618.283	16395.340
618.412	16475.894
618.540	16517.809
618.668	16491.702
618.796	16575.213
618.924	16641.681
619.052	16523.277
619.180	16512.277
619.308	16531.319
619.437	16596.979
619.565	16529.936
619.693	16480.723
619.821	16492.362
619.949	16461.553
620.077	16561.319
620.205	16585.638
620.333	16551.128
620.462	16649.319
620.590	16591.532
620.718	16560.170
620.846	16598.447
620.974	16599.532
621.102	16528.511
621.230	16550.043
621.358	16724.979
621.487	16505.723
621.615	16539.319
621.743	16552.362
621.871	16572.234
621.999	16642.872
622.127	16518.277
622.255	16589.894
622.383	16525.915
622.512	16497.128
622.640	16676.745
622.768	16447.596
622.896	16485.766
623.024	16532.766
623.152	16548.383
623.280	16511.426
623.408	16446.043
623.537	16447.489
623.665	16411.064
623.793	16455.468
623.921	16402.213
624.049	16438.489
624.177	16381.170
624.305	16415.745
624.433	16445.213
624.562	16431.660
624.690	16440.383
624.818	16503.340
624.946	16583.340
625.074	16485.277
625.202	16408.511
625.330	16376.404
625.458	16494.681
625.587	16413.447
625.715	16457.064
625.843	16505.170
625.971	16454.234
626.099	16420.383
626.227	16441.553
626.355	16385.596
626.483	16557.064
626.612	16444.468
626.740	16460.936
626.868	16550.638
626.996	16451.468
627.124	16461.894
627.252	16435.872
627.380	16516.723
627.508	16486.468
627.637	16490.702
627.765	16497.106
627.893	16583.404
628.021	16604.064
628.149	16822.617
628.277	16928.128
628.405	16915.915
628.533	16683.213
628.662	16653.064
628.790	16657.532
628.918	16693.787
629.046	16721.043
629.174	16816.149
629.302	17084.553
629.430	16886.553
629.558	16827.723
629.687	16811.830
629.815	16816.511
629.943	16884.255
630.071	16910.532
630.199	16889.681
630.327	16955.128
630.455	16952.745
630.583	17074.447
630.712	16963.234
630.840	16982.170
630.968	17039.574
631.096	16987.277
631.224	16993.191
631.352	17034.745
631.480	17009.723
631.608	17081.362
631.737	17121.106
631.865	17178.894
631.993	17061.872
632.121	17202.511
632.249	17124.809
632.377	17061.277
632.505	17130.936
632.633	16892.213
632.762	17067.766
632.890	17071.617
633.018	16913.872
633.146	17102.319
633.274	16934.085
633.402	16922.468
633.530	16911.957
633.658	17023.277
633.787	16834.085
633.915	16945.426
634.043	16838.340
634.171	16879.553
634.299	16810.362
634.427	16830.617
634.555	16749.766
634.683	16712.979
634.812	16711.277
634.940	16695.362
635.068	16611.085
635.196	16589.277
635.324	16596.532
635.452	16618.957
635.580	16460.681
635.708	16455.660
635.837	16472.277
635.965	16433.426
636.093	16428.830
636.221	16383.191
636.349	16398.936
636.477	16278.000
636.605	16439.830
636.733	16176.511
636.862	16199.638
636.990	16169.106
637.118	16222.319
637.246	16180.234
637.374	16115.830
637.502	16063.596
637.630	15986.660
637.758	16010.255
637.887	15961.468
638.015	15947.894
638.143	15917.128
638.271	15862.489
638.399	15850.085
638.527	15890.511
638.655	15834.681
638.783	15853.170
638.912	15831.979
639.040	15729.702
639.168	15748.936
639.296	15767.936
639.424	15831.787
639.552	15690.234
639.680	15799.766
639.808	15698.426
639.937	15643.830
640.065	15569.255
640.193	15706.596
640.321	15608.489
640.449	15623.617
640.577	15624.319
640.705	15599.787
640.833	15654.447
640.962	15558.787
641.090	15558.745
641.218	15500.766
641.346	15509.915
641.474	15574.404
641.602	15525.362
641.730	15544.915
641.858	15590.213
641.987	15532.979
642.115	15522.723
642.243	15543.766
642.371	15489.787
642.499	15559.681
642.627	15571.681
642.755	15640.426
642.883	15600.447
643.012	15544.468
643.140	15458.064
643.268	15508.511
643.396	15509.255
643.524	15654.106
643.652	15522.489
643.780	15426.489
643.908	15506.851
644.037	15564.851
644.165	15446.340
644.293	15436.447
644.421	15484.809
644.549	15490.106
644.677	15393.596
644.805	15432.766
644.933	15307.043
645.062	15375.170
645.190	15379.383
645.318	15406.000
645.446	15319.681
645.574	15346.234
645.702	15256.149
645.830	15484.511
645.958	15208.340
646.087	15427.277
646.215	15184.660
646.343	15345.170
646.471	15202.553
646.599	15165.702
646.727	15082.681
646.855	15089.043
646.983	15060.723
647.112	15031.277
647.240	15186.957
647.368	14976.468
647.496	14989.745
647.624	14906.191
647.752	14842.362
647.880	14852.979
648.008	14809.128
648.137	14776.298
648.265	14751.979
648.393	14706.064
648.521	14719.553
648.649	14695.872
648.777	14642.915
648.905	14534.404
649.033	14540.809
649.162	14521.681
649.290	14482.809
649.418	14483.489
649.546	14432.809
649.674	14383.383
649.802	14280.000
649.930	14461.553
650.058	14262.000
650.187	14153.872
650.315	14127.043
650.443	14192.915
650.571	14152.128
650.699	14095.830
650.827	14050.468
650.955	14013.660
651.083	13990.191
651.212	14006.723
651.340	13960.468
651.468	13872.766
651.596	13846.957
651.724	13832.085
651.852	13791.000
651.980	13693.872
652.108	13820.191
652.237	13701.404
652.365	13762.489
652.493	13595.149
652.621	13579.787
652.749	13657.617
652.877	13498.660
653.005	13530.638
653.133	13494.702
653.262	13524.447
653.390	13451.532
653.518	13496.447
653.646	13380.851
653.774	13560.553
653.902	13350.043
654.030	13316.468
654.158	13235.426
654.287	13233.468
654.415	13201.170
654.543	13235.532
654.671	13146.404
654.799	13127.191
654.927	13046.298
655.055	13047.553
655.183	13024.979
655.312	13043.979
655.440	13003.149
655.568	12872.532
655.696	12968.489
655.824	13006.681
655.952	12830.362
656.080	12801.128
656.208	12858.723
656.337	12761.723
656.465	12709.702
656.593	12694.915
656.721	12605.000
656.849	12612.979
656.977	12555.489
657.105	12490.638
657.233	12452.064
657.362	12402.234
657.490	12335.745
657.618	12369.660
657.746	12323.872
657.874	12290.191
658.002	12247.298
658.130	12212.681
658.258	12154.617
658.387	12137.064
658.515	12078.532
658.643	12104.702
658.771	12069.851
658.899	12023.021
659.027	11976.468
659.155	11973.723
659.283	12076.000
659.412	11830.915
659.540	11922.362
659.668	11802.128
659.796	11800.447
659.924	11837.277
660.052	11768.851
660.180	11714.128
660.308	11648.723
660.437	11606.383
660.565	11602.277
660.693	11569.426
660.821	11497.574
660.949	11488.234
661.077	11435.979
661.205	11418.787
661.333	11408.426
661.462	11495.532
661.590	11399.362
661.718	11494.702
661.846	11337.170
661.974	11445.000
662.102	11273.489
662.230	11229.787
662.358	11162.660
662.487	11206.872
662.615	11195.255
662.743	11076.574
662.871	11160.064
662.999	11099.745
663.127	11020.574
663.255	11185.894
663.383	11099.234
663.512	11033.489
663.640	11082.872
663.768	10970.170
663.896	11056.149
664.024	11031.298
664.152	10974.979
664.280	11036.574
664.408	10942.617
664.537	10978.638
664.665	10893.872
664.793	10824.894
664.921	10831.915
665.049	10831.383
665.177	10795.936
665.305	10813.553
665.433	10751.617
665.562	10766.872
665.690	10760.298
665.818	10871.723
665.946	10704.383
666.074	10655.894
666.202	10654.596
666.330	10670.915
666.458	10639.915
666.587	10596.340
666.715	10616.489
666.843	10546.468
666.971	10494.277
667.099	10544.660
667.227	10514.957
667.355	10468.681
667.483	10423.532
667.612	10472.787
667.740	10428.532
667.868	10495.660
667.996	10451.404
668.124	10364.511
668.252	10369.362
668.380	10348.340
668.508	10336.787
668.637	10320.191
668.765	10288.468
668.893	10275.766
669.021	10162.702
669.149	10247.638
669.277	10257.511
669.405	10126.979
669.533	10175.532
669.662	10361.191
669.790	10145.681
669.918	10127.021
670.046	10013.489
670.174	10127.255
670.302	10088.851
670.430	9998.638
670.558	10063.894
670.687	9901.830
670.815	10051.213
670.943	9887.213
671.071	9831.660
671.199	9856.957
671.327	9802.085
671.455	9735.447
671.583	9714.894
671.712	9826.553
671.840	9687.255
671.968	9617.745
672.096	9565.532
672.224	9520.766
672.352	9700.915
672.480	9539.894
672.608	9424.340
672.737	9396.362
672.865	9510.702
672.993	9336.979
673.121	9258.426
673.249	9219.766
673.377	9235.638
673.505	9168.681
673.633	9150.660
673.762	9069.915
673.890	9075.128
674.018	9262.426
674.146	9019.660
674.274	8999.085
674.402	9141.574
674.530	8970.787
674.658	8853.894
674.787	8834.043
674.915	8779.702
675.043	8900.298
675.171	8788.723
675.299	8668.596
675.427	8654.872
675.555	8642.383
675.683	8619.681
675.812	8596.532
675.940	8615.894
676.068	8545.426
676.196	8465.915
676.324	8523.936
676.452	8483.617
676.580	8386.574
676.708	8389.106
676.837	8385.830
676.965	8330.745
677.093	8245.511
677.221	8200.064
677.349	8215.915
677.477	8240.830
677.605	8161.340
677.733	8190.340
677.862	8035.681
677.990	8000.468
678.118	7991.638
678.246	7968.511
678.374	7963.340
678.502	7893.170
678.630	7878.745
678.758	7917.489
678.887	7791.574
679.015	7804.596
679.143	7722.532
679.271	7732.106
679.399	7787.000
679.527	7722.000
679.655	7636.426
679.783	7689.064
679.912	7724.149
680.040	7651.979
680.168	7617.936
680.296	7605.021
680.424	7551.340
680.552	7534.872
680.680	7641.043
680.808	7466.043
680.937	7465.021
681.065	7424.532
681.193	7478.830
681.321	7475.511
681.449	7391.213
681.577	7440.170
681.705	7385.830
681.833	7349.021
681.962	7318.362
682.090	7489.787
682.218	7258.298
682.346	7283.191
682.474	7268.617
682.602	7219.064
682.730	7253.830
682.858	7170.830
682.987	7228.000
683.115	7186.723
683.243	7117.851
683.371	7104.787
683.499	7153.532
683.627	7159.277
683.755	7121.830
683.883	7243.426
684.012	7050.128
684.140	7017.085
684.268	7017.809
684.396	6995.957
684.524	7040.574
684.652	7065.766
684.780	6992.234
684.908	6971.255
685.037	6912.830
685.165	6877.064
685.293	6846.021
685.421	6924.638
685.549	6820.681
685.677	6803.277
685.805	6961.468
685.933	6797.872
686.062	6740.702
686.190	6785.043
686.318	6780.043
686.446	6722.234
686.574	6696.553
686.702	6763.894
686.830	6666.766
686.958	6597.468
687.087	6608.085
687.215	6604.681
687.343	6593.766
687.471	6562.851
687.599	6528.745
687.727	6693.702
687.855	6519.681
687.983	6524.255
688.112	6593.170
688.240	6465.489
688.368	6447.787
688.496	6435.957
688.624	6488.957
688.752	6371.255
688.880	6366.617
689.008	6343.723
689.137	6334.149
689.265	6230.979
689.393	6209.043
689.521	6247.872
689.649	6234.766
689.777	6185.596
689.905	6168.660
690.033	6161.021
690.162	6139.234
690.290	6124.489
690.418	6081.596
690.546	6192.745
690.674	6139.191
690.802	6028.511
690.930	6096.426
691.058	6022.723
691.187	5977.915
691.315	5950.596
691.443	6018.213
691.571	5934.957
691.699	5930.213
691.827	5937.936
691.955	5870.489
692.083	5865.277
692.212	5938.957
692.340	5830.021
692.468	5808.064
692.596	5787.553
692.724	5880.234
692.852	5729.787
692.980	5762.447
693.108	5733.149
693.237	5661.830
693.365	5637.511
693.493	5626.064
693.621	5608.277
693.749	5578.319
693.877	5517.809
694.005	5620.043
694.133	5524.745
694.262	5537.787
694.390	5456.511
694.518	5456.489
694.646	5453.809
694.774	5419.511
694.902	5515.085
695.030	5431.766
695.158	5333.936
695.287	5354.830
695.415	5377.064
695.543	5318.511
695.671	5427.894
695.799	5286.000
695.927	5310.745
696.055	5255.468
696.183	5282.085
696.312	5214.404
696.440	5372.660
696.568	5281.277
696.696	5231.064
696.824	5143.745
696.952	5143.234
697.080	5143.915
697.208	5076.319
697.337	5187.638
697.465	5107.702
697.593	5071.957
697.721	5077.362
697.849	5055.426
697.977	5026.468
698.105	5033.957
698.233	4953.298
698.362	4962.532
698.490	4931.894
698.618	4949.532
698.746	5002.894
698.874	4910.362
699.002	5108.596
699.130	4909.979
699.258	4881.638
699.387	4828.617
699.515	4859.277
699.643	4794.702
699.771	4838.383
699.899	4785.383
700.027	4805.915
700.155	4748.574
700.283	4716.234
700.412	4767.851
700.540	4712.809
700.668	4720.830
700.796	4650.553
700.924	4648.936
701.052	4636.404
701.180	4708.191
701.308	4604.021
701.437	4512.532
701.565	4510.723
701.693	4487.638
701.821	4533.915
701.949	4530.298
702.077	4512.532
702.205	4411.957
702.333	4446.340
702.462	4389.617
702.590	4389.638
702.718	4371.170
702.846	4339.553
702.974	4318.000
703.102	4313.106
703.230	4385.787
703.358	4310.489
703.487	4221.809
703.615	4386.234
703.743	4238.362
703.871	4185.681
703.999	4208.234
704.127	4299.128
704.255	4099.681
704.383	4278.277
704.512	4135.766
704.640	4094.553
704.768	4017.872
704.896	4147.064
705.024	3989.340
705.152	4096.872
705.280	3996.872
705.408	3983.936
705.537	3947.021
705.665	3905.809
705.793	3881.766
705.921	3840.553
706.049	3862.809
706.177	3808.468
706.305	3808.617
706.433	3899.745
706.562	3816.106
706.690	3748.319
706.818	3731.340
706.946	3922.191
707.074	3734.383
707.202	3664.213
707.330	3744.085
707.458	3670.064
707.587	3633.064
707.715	3626.574
707.843	3650.106
707.971	3657.723
708.099	3663.277
708.227	3559.936
708.355	3543.532
708.483	3500.894
708.612	3517.340
708.740	3534.723
708.868	3592.362
708.996	3535.894
709.124	3523.745
709.252	3477.085
709.380	3412.617
709.508	3464.894
709.637	3422.404
709.765	3421.872
709.893	3411.957
710.021	3410.830
710.149	3354.830
710.277	3413.894
710.405	3303.298
710.533	3350.085
710.662	3296.170
710.790	3277.660
710.918	3334.404
711.046	3298.787
711.174	3240.574
711.302	3251.149
711.430	3352.213
711.558	3201.383
711.687	3200.745
711.815	3213.809
711.943	3183.340
712.071	3219.851
712.199	3246.745
712.327	3194.660
712.455	3128.106
712.583	3168.426
712.712	3130.128
712.840	3139.085
712.968	3111.362
713.096	3146.723
713.224	3065.362
713.352	3097.660
713.480	3063.362
713.608	3061.957
713.737	3071.851
713.865	3073.787
713.993	3106.872
714.121	3021.191
714.249	3061.128
714.377	3133.404
714.505	3042.553
714.633	3177.872
714.762	3054.702
714.890	2961.660
715.018	3011.596
715.146	2985.298
715.274	3034.362
715.402	3129.553
715.530	3050.872
715.658	2924.000
715.787	2913.957
715.915	3144.723
716.043	2900.681
716.171	2973.511
716.299	2996.191
716.427	2910.894
716.555	2882.128
716.683	2865.553
716.812	2848.681
716.940	2884.298
717.068	2809.830
717.196	3002.468
717.324	2934.723
717.452	2823.532
717.580	2790.723
717.708	2799.170
717.837	2879.000
717.965	2711.681
718.093	2780.064
718.221	2703.362
718.349	2766.596
718.477	2756.255
718.605	2774.830
718.733	2711.043
718.862	2716.936
718.990	2678.000
719.118	2667.894
719.246	2672.702
719.374	2749.745
719.502	2686.043
719.630	2831.511
719.758	2625.830
719.887	2603.319
720.015	2821.255
720.143	2587.660
720.271	2617.191
720.399	2617.362
720.527	2630.979
720.655	2647.255
720.783	2668.277
720.912	2595.447
721.040	2580.383
721.168	2558.255
721.296	2624.447
721.424	2554.702
721.552	2532.745
721.680	2512.426
721.808	2563.723
721.937	2558.979
722.065	2596.362
722.193	2591.170
722.321	2525.319
722.449	2517.574
722.577	2508.617
722.705	2503.936
722.833	2517.277
722.962	2518.106
723.090	2479.340
723.218	2449.872
723.346	2474.915
723.474	2449.106
723.602	2533.106
723.730	2482.957
723.858	2521.383
723.987	2471.213
724.115	2425.255
724.243	2431.489
724.371	2431.702
724.499	2441.894
724.627	2405.447
724.755	2419.064
724.883	2413.489
725.012	2372.957
725.140	2365.149
725.268	2354.298
725.396	2365.851
725.524	2342.170
725.652	2355.468
725.780	2332.234
725.908	2330.617
726.037	2320.149
726.165	2298.979
726.293	2267.000
726.421	2282.936
726.549	2286.064
726.677	2262.660
726.805	2262.128
726.933	2267.404
727.062	2202.894
727.190	2215.404
727.318	2217.660
727.446	2212.532
727.574	2207.362
727.702	2206.404
727.830	2192.617
727.958	2205.830
728.087	2200.915
728.215	2189.468
728.343	2138.277
728.471	2153.723
728.599	2148.617
728.727	2151.340
728.855	2142.043
728.983	2132.936
729.112	2121.255
729.240	2106.723
729.368	2100.766
729.496	2112.957
729.624	2083.128
729.752	2096.106
729.880	2090.872
730.008	2101.000
730.137	2101.149
730.265	2083.766
730.393	2051.085
730.521	2069.851
730.649	2051.766
730.777	2061.255
730.905	1997.936
731.033	2024.362
731.162	2097.851
731.290	2133.468
731.418	2092.213
731.546	2105.894
731.674	2006.468
731.802	2003.723
731.930	2006.723
732.058	1983.298
732.187	2009.128
732.315	1953.277
732.443	1982.936
732.571	1967.574
732.699	1954.298
732.827	2000.936
732.955	1938.617
733.083	1938.745
733.212	1940.085
733.340	1930.957
733.468	1945.383
733.596	1917.000
733.724	1885.468
733.852	1922.681
733.980	1932.085
734.108	1938.362
734.237	1942.660
734.365	1905.787
734.493	1906.319
734.621	1869.766
734.749	1898.043
734.877	1868.106
735.005	1877.809
735.133	1854.596
735.262	1862.043
735.390	1847.447
735.518	1858.426
735.646	1830.085
735.774	1843.298
735.902	1849.447
736.030	1828.915
736.158	1886.766
736.287	1826.043
736.415	1855.213
736.543	1807.723
736.671	1773.149
736.799	1802.936
736.927	1879.064
737.055	1806.936
737.183	1787.064
737.312	1784.894
737.440	1810.957
737.568	1852.426
737.696	1769.851
737.824	1814.511
737.952	1762.511
738.080	1731.660
738.208	1781.574
738.337	1748.191
738.465	1836.979
738.593	1722.234
738.721	1703.809
738.849	1712.830
738.977	1729.723
739.105	1720.234
739.233	1727.489
739.362	1700.702
739.490	1679.596
739.618	1664.043
739.746	1700.340
739.874	1681.681
740.002	1659.596
740.130	1667.277
740.258	1665.532
740.387	1645.043
740.515	1651.745
740.643	1635.340
740.771	1693.021
740.899	1627.915
741.027	1639.894
741.155	1655.000
741.283	1593.915
741.412	1614.766
741.540	1638.000
741.668	1590.234
741.796	1587.043
741.924	1660.468
742.052	1589.404
742.180	1589.213
742.308	1590.553
742.437	1584.064
742.565	1605.787
742.693	1598.851
742.821	1554.872
742.949	1626.213
743.077	1576.809
743.205	1554.362
743.333	1580.043
743.462	1582.319
743.590	1573.340
743.718	1533.106
743.846	1570.362
743.974	1535.128
744.102	1536.085
744.230	1542.936
744.358	1518.681
744.487	1504.277
744.615	1543.362
744.743	1509.617
744.871	1475.872
744.999	1542.340
745.127	1467.574
745.255	1484.319
745.383	1504.681
745.512	1487.553
745.640	1449.809
745.768	1480.979
745.896	1481.213
746.024	1491.702
746.152	1435.447
746.280	1460.830
746.408	1430.638
746.537	1441.787
746.665	1482.340
746.793	1448.213
746.921	1406.383
747.049	1443.489
747.177	1453.298
747.305	1456.255
747.433	1490.021
747.562	1415.745
747.690	1427.213
747.818	1419.915
747.946	1413.511
748.074	1500.277
748.202	1425.660
748.330	1394.894
748.458	1411.340
748.587	1393.936
748.715	1362.957
748.843	1394.234
748.971	1377.170
749.099	1377.915
749.227	1408.957
749.355	1368.702
749.483	1374.489
749.612	1355.553
749.740	1358.681
749.868	1361.234
749.996	1360.021
750.124	1333.191
750.252	1360.213
750.380	1348.574
750.508	1316.766
750.637	1319.404
750.765	1355.830
750.893	1324.085
751.021	1361.319
751.149	1332.766
751.277	1338.213
751.405	1361.128
751.533	1378.872
751.662	1294.362
751.790	1335.340
751.918	1283.979
752.046	1304.255
752.174	1294.745
752.302	1350.468
752.430	1305.979
752.558	1266.468
752.687	1273.702
752.815	1264.319
752.943	1254.787
753.071	1243.872
753.199	1252.149
753.327	1310.574
753.455	1266.383
753.583	1239.532
753.712	1242.787
753.840	1231.532
753.968	1221.468
754.096	1225.617
754.224	1229.532
754.352	1231.447
754.480	1217.170
754.608	1222.021
754.737	1217.766
754.865	1266.362
754.993	1220.468
755.121	1196.426
755.249	1273.213
755.377	1212.234
755.505	1194.043
755.633	1222.681
755.762	1200.170
755.890	1272.213
756.018	1249.957
756.146	1187.319
756.274	1201.979
756.402	1180.213
756.530	1177.617
756.658	1196.064
756.787	1193.000
756.915	1152.745
757.043	1190.723
757.171	1168.830
757.299	1159.489
757.427	1134.660
757.555	1149.468
757.683	1175.957
757.812	1126.170
757.940	1137.298
758.068	1122.851
758.196	1106.489
758.324	1108.340
758.452	1206.681
758.580	1103.255
758.708	1136.340
758.837	1116.830
758.965	1201.447
759.093	1097.383
759.221	1075.213
759.349	1102.681
759.477	1086.170
759.605	1082.596
759.733	1086.064
759.862	1066.745
759.990	1062.936
760.118	1062.957
760.246	1060.298
760.374	1078.426
760.502	1082.787
760.630	1061.596
760.758	1050.213
760.887	1036.468
761.015	1048.936
761.143	1029.702
761.271	1033.702
761.399	1017.511
761.527	1016.404
761.655	1021.660
761.783	1020.064
761.912	1010.745
762.040	1003.149
762.168	1032.511
762.296	1000.213
762.424	986.766
762.552	993.043
762.680	1054.128
762.808	950.574
762.937	985.596
763.065	1042.468
763.193	1025.723
763.321	991.681
763.449	941.638
763.577	969.979
763.705	958.085
763.833	1037.021
763.962	956.340
764.090	955.128
764.218	968.319
764.346	956.681
764.474	914.936
764.602	937.936
764.730	917.064
764.858	957.213
764.987	938.000
765.115	979.830
765.243	940.064
765.371	919.830
765.499	897.787
765.627	899.340
765.755	900.979
765.883	926.553
766.012	910.085
766.140	903.277
766.268	899.000
766.396	874.617
766.524	891.277
766.652	891.511
766.780	878.809
766.908	899.000
767.037	893.298
767.165	898.447
767.293	943.830
767.421	875.979
767.549	893.383
767.677	886.915
767.805	876.553
767.933	887.766
768.062	888.532
768.190	884.766
768.318	863.511
768.446	896.787
768.574	901.702
768.702	887.766
768.830	874.277
768.958	864.277
769.087	857.553
769.215	848.723
769.343	866.809
769.471	842.511
769.599	899.106
769.727	886.149
769.855	861.723
769.983	850.957
770.112	844.085
770.240	848.553
770.368	846.936
770.496	836.085
770.624	851.596
770.752	857.000
770.880	885.043
771.008	853.447
771.137	838.915
771.265	875.447
771.393	860.404
771.521	849.532
771.649	844.000
771.777	832.489
771.905	844.383
772.033	842.404
772.162	860.213
772.290	843.660
772.418	885.745
772.546	854.660
772.674	830.617
772.802	850.447
772.930	883.468
773.058	837.766
773.187	856.426
773.315	854.255
773.443	847.426
773.571	845.489
773.699	836.979
773.827	830.021
773.955	880.021
774.083	857.553
774.212	826.617
774.340	869.745
774.468	826.447
774.596	839.149
774.724	829.234
774.852	838.574
774.980	823.213
775.108	835.255
775.237	828.064
775.365	845.085
775.493	821.191
775.621	839.787
775.749	840.511
775.877	827.660
776.005	824.553
776.133	852.489
776.262	839.000
776.390	810.511
776.518	850.936
776.646	824.170
776.774	850.426
776.902	828.021
777.030	822.660
777.158	845.106
777.287	844.787
777.415	811.511
777.543	813.170
777.671	814.872
777.799	816.787
777.927	809.851
778.055	824.766
778.183	819.936
778.312	779.362
778.440	815.617
778.568	826.851
778.696	806.936
778.824	819.234
778.952	817.638
779.080	800.255
779.208	829.915
779.337	820.872
779.465	815.170
779.593	803.553
779.721	828.830
779.849	815.766
779.977	805.128
780.105	785.191
780.233	820.255
780.362	827.511
780.490	830.447
780.618	806.851
780.746	818.255
780.874	779.298
781.002	797.766
781.130	798.106
781.258	784.596
781.387	793.787
781.515	818.149
781.643	787.404
781.771	832.511
781.899	783.723
782.027	833.404
782.155	806.596
782.283	796.511
782.412	786.915
782.540	792.702
782.668	810.872
782.796	767.255
782.924	803.596
783.052	773.745
783.180	821.255
783.308	786.234
783.437	792.298
783.565	776.298
783.693	775.383
783.821	789.979
783.949	777.979
784.077	794.532
784.205	777.957
784.333	822.766
784.462	755.638
784.590	788.723
784.718	789.149
784.846	766.277
784.974	795.702
785.102	815.447
785.230	766.723
785.358	818.660
785.487	780.128
785.615	766.447
785.743	767.255
785.871	773.489
785.999	764.511
786.127	751.064
786.255	773.681
786.383	800.277
786.512	789.574
786.640	775.638
786.768	780.596
786.896	759.851
787.024	754.532
787.152	757.723
787.280	758.851
787.408	766.511
787.537	794.511
787.665	764.851
787.793	793.511
787.921	771.340
788.049	766.340
788.177	758.809
788.305	750.894
788.433	786.191
788.562	732.809
788.690	751.957
788.818	749.255
788.946	767.787
789.074	744.979
789.202	766.362
789.330	765.596
789.458	753.362
789.587	816.426
789.715	761.596
789.843	746.957
789.971	748.979
790.099	744.064
790.227	753.340
790.355	747.000
790.483	767.043
790.612	744.106
790.740	739.511
790.868	757.064
790.996	754.404
791.124	740.064
791.252	744.851
791.380	749.128
791.508	751.383
791.637	750.617
791.765	732.723
791.893	736.702
792.021	736.979
792.149	738.085
792.277	738.064
792.405	726.234
792.533	757.043
792.662	709.043
792.790	724.340
792.918	734.596
793.046	727.681
793.174	750.872
793.302	732.830
793.430	724.681
793.558	720.617
793.687	721.170
793.815	729.766
793.943	751.532
794.071	738.298
794.199	717.277
794.327	721.574
794.455	789.596
794.583	810.404
794.712	720.872
794.840	721.745
794.968	716.021
795.096	723.383
795.224	697.745
795.352	710.043
795.480	745.915
795.608	723.809
795.737	724.851
795.865	705.128
795.993	691.681
796.121	697.383
796.249	710.426
796.377	700.404
796.505	692.426
796.633	685.213
796.762	691.191
796.890	702.340
797.018	711.000
797.146	684.809
797.274	675.723
797.402	675.894
797.530	709.170
797.658	681.851
797.787	726.532
797.915	689.085
798.043	702.936
798.171	666.681
798.299	682.745
798.427	676.383
798.555	675.745
798.683	660.511
798.812	675.681
798.940	725.191
799.068	673.936
799.196	695.319
799.324	667.447
799.452	677.234
799.580	657.043
799.708	713.468
799.837	652.957
799.965	654.660
800.093	670.213
800.221	638.340
800.349	656.447
800.477	659.617
800.605	658.809
800.733	671.319
800.862	654.426
800.990	690.170
801.118	630.957
801.246	646.447
801.374	666.532
801.502	631.191
801.630	619.681
801.758	642.340
801.887	671.021
802.015	629.702
802.143	624.596
802.271	656.404
802.399	644.617
802.527	617.936
802.655	668.021
802.783	679.894
802.912	641.085
803.040	630.426
803.168	606.617
803.296	610.085
803.424	628.362
803.552	622.255
803.680	620.213
803.808	632.128
803.937	622.894
804.065	605.340
804.193	610.319
804.321	668.000
804.449	591.277
804.577	611.660
804.705	621.170
804.833	650.766
804.962	603.106
805.090	606.106
805.218	623.511
805.346	618.574
805.474	629.213
805.602	636.574
805.730	611.936
805.858	593.830
805.987	603.957
806.115	611.979
806.243	609.702
806.371	633.255
806.499	715.553
806.627	731.106
806.755	706.915
806.883	609.255
807.012	592.553
807.140	616.830
807.268	611.723
807.396	605.979
807.524	580.957
807.652	589.596
807.780	649.851
807.908	584.468
808.037	630.000
808.165	610.021
808.293	597.957
808.421	637.064
808.549	578.745
808.677	577.489
808.805	623.511
808.933	585.851
809.062	589.979
809.190	639.128
809.318	588.298
809.446	589.064
809.574	637.957
809.702	567.043
809.830	592.340
809.958	588.319
810.087	575.809
810.215	594.787
810.343	590.128
810.471	592.213
810.599	560.255
810.727	577.681
810.855	554.681
810.983	562.191
811.112	578.809
811.240	565.745
811.368	583.915
811.496	612.702
811.624	574.723
811.752	563.000
811.880	571.404
812.008	556.362
812.137	595.021
812.265	536.681
812.393	579.574
812.521	587.383
812.649	562.809
812.777	557.787
812.905	588.787
813.033	549.170
813.162	547.787
813.290	546.234
813.418	566.489
813.546	540.468
813.674	547.426
813.802	559.170
813.930	534.277
814.058	540.468
814.187	559.489
814.315	541.191
814.443	556.957
814.571	561.447
814.699	565.596
814.827	538.766
814.955	534.809
815.083	578.723
815.212	560.702
815.340	571.383
815.468	527.511
815.596	544.468
815.724	548.404
815.852	534.894
815.980	538.702
816.108	535.915
816.237	527.170
816.365	538.213
816.493	552.128
816.621	517.574
816.749	532.319
816.877	537.532
817.005	547.830
817.133	535.213
817.262	528.447
817.390	532.787
817.518	517.617
817.646	532.957
817.774	518.936
817.902	524.043
818.030	514.468
818.158	552.936
818.287	530.830
818.415	500.745
818.543	516.745
818.671	533.936
818.799	515.128
818.927	519.255
819.055	518.979
819.183	503.021
819.312	512.766
819.440	491.468
819.568	494.851
819.696	518.426
819.824	525.170
819.952	495.957
820.080	519.106
820.208	500.723
820.337	499.064
820.465	538.128
820.593	500.085
820.721	483.489
820.849	502.340
820.977	494.319
821.105	510.809
821.233	472.638
821.362	510.872
821.490	487.404
821.618	481.128
821.746	477.340
821.874	496.255
822.002	475.553
822.130	477.277
822.258	471.553
822.387	469.787
822.515	493.255
822.643	494.447
822.771	494.766
822.899	478.511
823.027	520.809
823.155	468.745
823.283	458.213
823.412	485.489
823.540	473.638
823.668	515.064
823.796	469.638
823.924	497.319
824.052	499.553
824.180	480.404
824.308	465.191
824.437	465.745
824.565	472.170
824.693	479.638
824.821	475.213
824.949	462.383
825.077	468.787
825.205	508.362
825.333	483.830
825.462	485.277
825.590	458.830
825.718	479.851
825.846	464.851
825.974	449.745
826.102	446.255
826.230	452.170
826.358	459.532
826.487	445.340
826.615	486.745
826.743	450.723
826.871	472.936
826.999	502.702
827.127	449.660
827.255	454.872
827.383	431.723
827.512	474.255
827.640	436.809
827.768	438.681
827.896	454.234
828.024	447.085
828.152	436.511
828.280	446.745
828.408	433.298
828.537	438.489
828.665	451.766
828.793	435.660
828.921	424.383
829.049	462.213
829.177	425.234
829.305	430.979
829.433	452.064
829.562	451.745
829.690	420.255
829.818	462.936
829.946	430.532
830.074	433.340
830.202	452.021
830.330	448.894
830.458	474.702
830.587	428.277
830.715	440.638
830.843	424.723
830.971	441.128
831.099	449.936
831.227	426.851
831.355	422.191
831.483	422.340
831.612	454.191
831.740	422.894
831.868	428.255
831.996	420.532
832.124	422.511
832.252	403.957
832.380	430.979
832.508	474.064
832.637	416.340
832.765	419.766
832.893	458.255
833.021	407.298
833.149	404.957
833.277	420.511
833.405	408.149
833.533	395.468
833.662	404.723
833.790	405.362
833.918	417.574
834.046	446.660
834.174	418.128
834.302	404.532
834.430	397.213
834.558	403.277
834.687	420.851
834.815	388.979
834.943	404.468
835.071	404.894
835.199	408.851
835.327	415.830
835.455	394.298
835.583	431.128
835.712	386.170
835.840	396.830
835.968	393.000
836.096	446.021
836.224	413.617
836.352	389.936
836.480	409.468
836.608	403.766
836.737	389.064
836.865	383.936
836.993	398.234
837.121	397.851
837.249	370.787
837.377	412.128
837.505	392.660
837.633	379.957
837.762	386.702
837.890	430.723
838.018	410.170
838.146	425.851
838.274	404.894
838.402	404.979
838.530	392.043
838.658	367.617
838.787	389.426
838.915	394.979
839.043	370.362
839.171	404.872
839.299	373.872
839.427	378.000
839.555	383.574
839.683	395.064
839.812	405.021
839.940	369.745
840.068	385.021
840.196	383.170
840.324	375.383
840.452	375.553
840.580	410.170
840.708	383.596
840.837	406.085
840.965	363.362
841.093	381.468
841.221	365.468
841.349	367.234
841.477	383.766
841.605	377.085
841.733	361.426
841.862	370.617
841.990	415.277
842.118	359.596
842.246	360.234
842.374	362.000
842.502	345.234
842.630	380.936
842.758	387.106
842.887	349.979
843.015	360.638
843.143	378.170
843.271	362.660
843.399	396.766
843.527	374.340
843.655	345.043
843.783	356.234
843.912	345.787
844.040	389.809
844.168	349.979
844.296	350.936
844.424	340.511
844.552	360.383
844.680	369.766
844.808	379.787
844.937	352.362
845.065	350.617
845.193	373.404
845.321	355.298
845.449	350.170
845.577	351.723
845.705	345.043
845.833	338.213
845.962	354.617
846.090	337.319
846.218	348.383
846.346	349.745
846.474	357.809
846.602	344.936
846.730	373.936
846.858	355.979
846.987	344.702
847.115	328.851
847.243	358.404
847.371	365.021
847.499	357.170
847.627	336.255
847.755	327.511
847.883	336.298
848.012	349.064
848.140	335.681
848.268	353.809
848.396	320.234
848.524	355.170
848.652	313.532
848.780	331.872
848.908	338.915
849.037	332.149
849.165	341.809
849.293	344.106
849.421	354.383
849.549	335.489
849.677	327.021
849.805	333.213
849.933	334.681
850.062	322.851
850.190	328.830
850.318	334.766
850.446	315.830
850.574	316.447
850.702	324.915
850.830	328.532
850.958	338.511
851.087	308.745
851.215	323.000
851.343	316.702
851.471	316.511
851.599	332.319
851.727	324.234
851.855	362.404
851.983	329.574
852.112	320.383
852.240	314.043
852.368	313.213
852.496	318.745
852.624	320.277
852.752	322.404
852.880	300.085
853.008	318.979
853.137	321.553
853.265	329.340
853.393	310.489
853.521	322.511
853.649	315.830
853.777	311.851
853.905	324.362
854.033	309.702
854.162	366.319
854.290	313.766
854.418	297.787
854.546	300.851
854.674	415.830
854.802	312.106
854.930	297.851
855.058	290.383
855.187	296.085
855.315	327.064
855.443	290.149
855.571	297.277
855.699	295.191
855.827	295.447
855.955	296.404
856.083	307.766
856.212	311.319
856.340	297.277
856.468	346.191
856.596	321.191
856.724	306.723
856.852	296.574
856.980	291.234
857.108	316.277
857.237	287.745
857.365	322.085
857.493	298.191
857.621	284.830
857.749	304.191
857.877	305.936
858.005	312.298
858.133	292.319
858.262	296.723
858.390	292.851
858.518	280.596
858.646	283.830
858.774	283.830
858.902	260.723
859.030	285.043
859.158	295.723
859.287	295.638
859.415	313.319
859.543	278.447
859.671	285.170
859.799	305.681
859.927	291.447
860.055	286.702
860.183	293.383
860.312	283.766
860.440	287.255
860.568	290.064
860.696	273.936
860.824	341.979
860.952	328.872
861.080	290.340
861.208	286.277
861.337	291.319
861.465	312.745
861.593	322.787
861.721	283.894
861.849	281.468
861.977	269.064
862.105	291.170
862.233	304.936
862.362	282.511
862.490	304.809
862.618	267.553
862.746	284.043
862.874	269.809
863.002	271.021
863.130	303.894
863.258	285.404
863.387	291.362
863.515	297.574
863.643	290.447
863.771	347.617
863.899	278.340
864.027	265.809
864.155	269.681
864.283	293.617
864.412	279.128
864.540	273.383
864.668	267.489
864.796	277.532
864.924	285.234
865.052	275.617
865.180	264.383
865.308	253.149
865.437	279.319
865.565	278.723
865.693	302.532
865.821	280.404
865.949	293.532
866.077	276.511
866.205	283.234
866.333	287.745
866.462	259.426
866.590	277.234
866.718	285.149
866.846	265.170
866.974	274.489
867.102	289.574
867.230	305.787
867.358	272.957
867.487	271.064
867.615	294.447
867.743	270.447
867.871	273.000
867.999	274.532
868.127	261.979
868.255	319.043
868.383	319.702
868.512	263.936
868.640	262.213
868.768	252.511
868.896	247.426
869.024	294.426
869.152	260.191
869.280	274.809
869.408	295.277
869.537	261.255
869.665	329.894
869.793	255.085
869.921	290.298
870.049	274.447
870.177	271.957
870.305	305.851
870.433	245.128
870.562	278.149
870.690	252.979
870.818	262.064
870.946	268.234
871.074	292.170
871.202	268.766
871.330	280.362
871.458	237.191
871.587	256.596
871.715	262.234
871.843	253.021
871.971	255.681
872.099	266.213
872.227	252.936
872.355	270.936
872.483	266.255
872.612	265.489
872.740	268.787
872.868	251.936
872.996	260.149
873.124	254.894
873.252	261.064
873.380	254.681
873.508	248.532
873.637	265.106
873.765	243.851
873.893	305.468
874.021	259.255
874.149	258.830
874.277	259.000
874.405	249.745
874.533	253.468
874.662	1145.021
874.790	257.298
874.918	285.638
875.046	279.277
875.174	265.021
875.302	244.787
875.430	285.894
875.558	261.277
875.687	275.298
875.815	258.170
875.943	247.277
876.071	269.574
876.199	283.191
876.327	301.660
876.455	252.702
876.583	267.255
876.712	247.638
876.840	264.574
876.968	294.191
877.096	250.638
877.224	238.064
877.352	305.574
877.480	240.766
877.608	255.809
877.737	266.362
877.865	247.553
877.993	265.277
878.121	231.745
878.249	239.447
878.377	245.702
878.505	254.340
878.633	253.106
878.762	248.809
878.890	243.766
879.018	318.340
879.146	251.872
879.274	231.915
879.402	269.277
879.530	255.553
879.658	239.468
879.787	243.745
879.915	241.809
880.043	274.489
880.171	230.106
880.299	265.234
880.427	257.319
880.555	254.426
880.683	263.170
880.812	236.319
880.940	272.362
881.068	236.213
881.196	236.489
881.324	260.787
881.452	234.894
881.580	265.319
881.708	267.170
881.837	260.191
881.965	250.638
882.093	255.234
882.221	243.021
882.349	277.021
882.477	261.553
882.605	262.809
882.733	238.894
882.862	282.532
882.990	257.128
883.118	237.170
883.246	248.021
883.374	244.596
883.502	236.830
883.630	236.149
883.758	230.383
883.887	253.149
884.015	233.234
884.143	243.830
884.271	252.872
884.399	235.723
884.527	238.915
884.655	229.809
884.783	248.957
884.912	257.638
885.040	237.319
885.168	308.064
885.296	239.596
885.424	255.298
885.552	260.787
885.680	245.085
885.808	233.511
885.937	251.638
886.065	260.574
886.193	236.426
886.321	280.213
886.449	237.468
886.577	281.872
886.705	235.191
886.833	234.872
886.962	229.553
887.090	241.553
887.218	237.957
887.346	256.149
887.474	272.574
887.602	258.979
887.730	251.170
887.858	273.915
887.987	235.191
888.115	269.468
888.243	242.234
888.371	247.745
888.499	233.021
888.627	253.660
888.755	253.170
888.883	239.638
889.012	239.128
889.140	240.787
889.268	262.170
889.396	256.234
889.524	239.277
889.652	232.362
889.780	224.234
889.908	268.723
890.037	229.936
890.165	231.447
890.293	261.660
890.421	294.766
890.549	249.702
890.677	244.532
890.805	231.532
890.933	262.574
891.062	245.021
891.190	232.809
891.318	250.383
891.446	240.830
891.574	228.723
891.702	237.149
891.830	231.723
891.958	261.511
892.087	266.532
892.215	240.851
892.343	249.596
892.471	253.340
892.599	236.043
892.727	261.468
892.855	234.340
892.983	224.383
893.112	238.957
893.240	230.319
893.368	259.936
893.496	234.617
893.624	240.106
893.752	302.404
893.880	275.149
894.008	222.106
894.137	243.936
894.265	247.191
894.393	240.255
894.521	233.149
894.649	261.043
894.777	235.723
894.905	220.915
895.033	271.383
895.162	233.574
895.290	278.915
895.418	255.872
895.546	243.149
895.674	314.106
895.802	233.447
895.930	250.766
896.058	220.447
896.187	230.702
896.315	233.106
896.443	226.936
896.571	233.660
896.699	235.830
896.827	246.851
896.955	250.000
897.083	227.681
897.212	269.574
897.340	235.574
897.468	223.511
897.596	226.106
897.724	273.340
897.852	236.617
897.980	238.553
898.108	239.362
898.237	234.234
898.365	234.702
898.493	237.787
898.621	235.468
898.749	236.021
898.877	239.702
899.005	214.191
899.133	225.255
899.262	246.957
899.390	261.574
899.518	235.128
899.646	234.957
899.774	264.085
899.902	313.872
900.030	243.702
900.158	235.064
900.287	254.064
900.415	213.894
900.543	250.255
900.671	236.489
900.799	261.936
900.927	225.234
901.055	229.574
901.183	242.085
901.312	256.340
901.440	252.277
901.568	245.170
901.696	244.596
901.824	249.128
901.952	249.234
902.080	350.000
902.208	262.979
902.337	227.617
902.465	242.702
902.593	231.766
902.721	238.213
902.849	241.787
902.977	246.128
903.105	233.851
903.233	251.830
903.362	233.468
903.490	249.362
903.618	228.532
903.746	254.191
903.874	225.851
904.002	236.766
904.130	247.638
904.258	253.553
904.387	230.574
904.515	251.723
904.643	219.723
904.771	233.681
904.899	246.681
905.027	256.596
905.155	242.702
905.283	235.574
905.412	259.277
905.540	241.894
905.668	242.106
905.796	228.064
905.924	234.851
906.052	239.638
906.180	253.170
906.308	242.468
906.437	271.617
906.565	244.681
906.693	243.745
906.821	225.447
906.949	240.702
907.077	249.553
907.205	239.745
907.333	240.404
907.462	239.043
907.590	230.191
907.718	259.574
907.846	275.872
907.974	227.319
908.102	240.340
908.230	267.362
908.358	271.979
908.487	247.319
908.615	245.553
908.743	250.085
908.871	298.191
908.999	240.957
909.127	274.638
909.255	220.000
909.383	233.149
909.512	273.766
909.640	238.830
909.768	246.809
909.896	293.043
910.024	263.851
910.152	250.745
910.280	287.617
910.408	241.723
910.537	238.404
910.665	273.298
910.793	243.000
910.921	258.915
911.049	237.191
911.177	230.681
911.305	258.532
911.433	253.383
911.562	248.851
911.690	249.596
911.818	302.489
911.946	243.915
912.074	257.936
912.202	279.383
912.330	246.468
912.458	253.340
912.587	265.936
912.715	277.638
912.843	271.234
912.971	263.234
913.099	274.383
913.227	267.170
913.355	248.745
913.483	268.723
913.612	259.681
913.740	383.170
913.868	267.298
