0pol_90_100_at_750.00nm_cut_at_984.50Y_02.dat
24.04.2023
10:48:19
cut middle at Y: 984.50
top cursor: 1008 down cursor: 961 mean of: 47 lines , 2560 datapoints
wavelength(nm)	intensity[arb. units]
585.996	12603.234
586.124	12275.362
586.252	12192.043
586.380	12246.085
586.508	12321.745
586.637	12390.766
586.765	12484.468
586.893	12440.468
587.021	12531.021
587.149	12599.447
587.277	12455.553
587.405	12616.617
587.533	12536.043
587.662	12742.426
587.790	12662.468
587.918	12613.021
588.046	12584.255
588.174	12542.447
588.302	12688.234
588.430	12620.830
588.558	12580.064
588.687	12608.447
588.815	12647.532
588.943	12580.936
589.071	12591.021
589.199	12682.766
589.327	12660.681
589.455	12547.021
589.583	12711.511
589.712	12736.234
589.840	12614.362
589.968	12688.277
590.096	12696.766
590.224	12742.021
590.352	12714.553
590.480	12696.702
590.608	12671.766
590.737	12798.681
590.865	12850.596
590.993	12741.809
591.121	12779.064
591.249	12816.255
591.377	12734.085
591.505	12837.106
591.633	12911.085
591.762	12841.170
591.890	13015.957
592.018	12829.894
592.146	12898.064
592.274	12887.489
592.402	12893.149
592.530	12950.191
592.658	13159.043
592.787	12958.000
592.915	13147.894
593.043	13026.447
593.171	13092.830
593.299	13127.213
593.427	13117.170
593.555	13207.830
593.683	13212.723
593.812	13237.021
593.940	13267.489
594.068	13292.468
594.196	13408.915
594.324	13370.489
594.452	13364.936
594.580	13450.234
594.708	13442.447
594.837	13461.574
594.965	13544.106
595.093	13581.894
595.221	13545.468
595.349	13784.191
595.477	13702.128
595.605	13697.085
595.733	13675.362
595.862	13913.596
595.990	13768.085
596.118	13849.745
596.246	13960.979
596.374	13874.489
596.502	13867.638
596.630	13860.000
596.758	13838.787
596.887	13893.277
597.015	13909.489
597.143	13975.681
597.271	13948.596
597.399	13901.553
597.527	13947.021
597.655	14013.043
597.783	13936.021
597.912	13983.979
598.040	13980.745
598.168	14063.340
598.296	13993.872
598.424	13990.617
598.552	14036.511
598.680	13984.383
598.808	14114.723
598.937	14063.553
599.065	13970.766
599.193	14091.404
599.321	14087.660
599.449	14030.915
599.577	14007.660
599.705	14111.957
599.833	14105.851
599.962	14057.277
600.090	14172.596
600.218	14161.234
600.346	14201.213
600.474	14130.957
600.602	14158.191
600.730	14246.596
600.858	14261.340
600.987	14420.681
601.115	14334.979
601.243	14384.532
601.371	14380.085
601.499	14454.255
601.627	14459.319
601.755	14508.234
601.883	14638.511
602.012	14641.574
602.140	14588.872
602.268	14792.553
602.396	14674.277
602.524	14855.638
602.652	14853.362
602.780	14868.191
602.908	14928.979
603.037	14959.234
603.165	15014.660
603.293	15034.596
603.421	15097.979
603.549	15158.702
603.677	15288.915
603.805	15218.170
603.933	15310.128
604.062	15463.894
604.190	15358.319
604.318	15502.532
604.446	15496.426
604.574	15599.787
604.702	15618.149
604.830	15646.000
604.958	15699.255
605.087	15730.021
605.215	15738.511
605.343	15807.638
605.471	15878.830
605.599	15957.915
605.727	15940.596
605.855	15914.128
605.983	15981.298
606.112	16044.553
606.240	16027.426
606.368	16072.872
606.496	16270.447
606.624	16130.681
606.752	16205.213
606.880	16322.617
607.008	16406.745
607.137	16312.872
607.265	16131.149
607.393	16259.511
607.521	16333.149
607.649	16263.426
607.777	16269.149
607.905	16293.723
608.033	16278.894
608.162	16303.638
608.290	16331.660
608.418	16314.830
608.546	16363.915
608.674	16312.766
608.802	16286.106
608.930	16293.936
609.058	16363.723
609.187	16494.213
609.315	16452.383
609.443	16342.468
609.571	16479.447
609.699	16408.362
609.827	16522.553
609.955	16444.191
610.083	16408.894
610.212	16413.128
610.340	16449.319
610.468	16501.085
610.596	16563.319
610.724	16526.830
610.852	16513.702
610.980	16545.489
611.108	16583.511
611.237	16547.106
611.365	16583.447
611.493	16583.511
611.621	16664.468
611.749	16672.532
611.877	16771.745
612.005	16724.766
612.133	16838.617
612.262	16876.936
612.390	16875.106
612.518	16949.426
612.646	17107.191
612.774	16963.319
612.902	17053.638
613.030	17106.553
613.158	17321.298
613.287	17223.191
613.415	17265.191
613.543	17194.979
613.671	17186.064
613.799	17364.809
613.927	17304.681
614.055	17385.915
614.183	17493.681
614.312	17402.447
614.440	17516.170
614.568	17484.787
614.696	17599.149
614.824	17747.574
614.952	17661.000
615.080	17768.702
615.208	17771.532
615.337	17884.957
615.465	17894.340
615.593	18049.489
615.721	18244.319
615.849	18300.936
615.977	18296.128
616.105	18322.362
616.233	18280.660
616.362	18364.617
616.490	18374.702
616.618	18474.277
616.746	18522.277
616.874	18594.553
617.002	18553.872
617.130	18628.723
617.258	18730.660
617.387	18659.936
617.515	18712.957
617.643	18734.277
617.771	18707.511
617.899	18787.638
618.027	18785.745
618.155	18907.170
618.283	18868.574
618.412	18901.766
618.540	18965.766
618.668	18949.681
618.796	18972.660
618.924	19087.340
619.052	19020.915
619.180	19056.617
619.308	19145.340
619.437	19100.872
619.565	19019.574
619.693	19079.766
619.821	19158.617
619.949	19152.191
620.077	19211.468
620.205	19278.468
620.333	19283.362
620.462	19294.532
620.590	19338.085
620.718	19298.553
620.846	19370.553
620.974	19355.638
621.102	19324.234
621.230	19301.021
621.358	19518.468
621.487	19370.021
621.615	19425.170
621.743	19553.787
621.871	19505.234
621.999	19570.255
622.127	19522.234
622.255	19579.128
622.383	19565.277
622.512	19599.426
622.640	19755.872
622.768	19628.957
622.896	19635.681
623.024	19634.702
623.152	19750.362
623.280	19732.064
623.408	19662.319
623.537	19697.617
623.665	19733.553
623.793	19824.809
623.921	19743.894
624.049	19821.064
624.177	19843.787
624.305	19868.000
624.433	19885.957
624.562	19958.511
624.690	19979.979
624.818	20018.936
624.946	20183.915
625.074	20083.638
625.202	20081.766
625.330	20028.787
625.458	20115.213
625.587	20155.021
625.715	20161.702
625.843	20311.447
625.971	20267.128
626.099	20225.553
626.227	20308.702
626.355	20284.766
626.483	20416.681
626.612	20368.809
626.740	20453.319
626.868	20539.787
626.996	20506.085
627.124	20470.340
627.252	20529.936
627.380	20619.660
627.508	20669.383
627.637	20641.638
627.765	20750.957
627.893	20847.000
628.021	20849.872
628.149	21129.000
628.277	21288.957
628.405	21263.553
628.533	21067.702
628.662	21078.809
628.790	21196.511
628.918	21235.362
629.046	21187.447
629.174	21406.872
629.302	21726.830
629.430	21517.426
629.558	21442.319
629.687	21496.000
629.815	21636.787
629.943	21619.064
630.071	21710.596
630.199	21827.085
630.327	21810.362
630.455	21861.936
630.583	21936.936
630.712	22005.979
630.840	22026.085
630.968	22110.894
631.096	22088.809
631.224	22151.851
631.352	22222.021
631.480	22286.000
631.608	22356.085
631.737	22448.979
631.865	22564.426
631.993	22434.277
632.121	22634.596
632.249	22729.511
632.377	22597.234
632.505	22705.957
632.633	22576.936
632.762	22720.830
632.890	22748.340
633.018	22662.149
633.146	22826.830
633.274	22670.553
633.402	22748.319
633.530	22823.191
633.658	22959.383
633.787	22869.213
633.915	22904.362
634.043	22923.702
634.171	22927.468
634.299	22963.532
634.427	23008.532
634.555	23005.957
634.683	22973.894
634.812	22924.213
634.940	22965.511
635.068	23024.511
635.196	23019.915
635.324	23029.319
635.452	23075.191
635.580	22955.426
635.708	22996.383
635.837	23074.936
635.965	23033.766
636.093	23032.532
636.221	23012.255
636.349	23133.383
636.477	23017.043
636.605	23193.638
636.733	22996.681
636.862	23030.894
636.990	23059.319
637.118	23067.787
637.246	23106.894
637.374	23014.426
637.502	23119.872
637.630	23079.468
637.758	23057.745
637.887	23060.723
638.015	23145.766
638.143	23118.872
638.271	23081.255
638.399	23158.064
638.527	23148.383
638.655	23200.660
638.783	23346.660
638.912	23278.574
639.040	23256.574
639.168	23327.128
639.296	23316.830
639.424	23484.043
639.552	23331.851
639.680	23555.957
639.808	23487.404
639.937	23494.043
640.065	23522.872
640.193	23614.936
640.321	23576.128
640.449	23644.766
640.577	23760.702
640.705	23741.447
640.833	23824.128
640.962	23821.340
641.090	23868.979
641.218	23920.277
641.346	24048.383
641.474	24025.830
641.602	24172.447
641.730	24137.957
641.858	24246.851
641.987	24356.319
642.115	24281.298
642.243	24400.128
642.371	24480.426
642.499	24449.766
642.627	24640.809
642.755	24685.064
642.883	24685.362
643.012	24778.404
643.140	24799.681
643.268	24897.617
643.396	24953.915
643.524	25097.170
643.652	25108.319
643.780	25059.766
643.908	25215.000
644.037	25281.085
644.165	25260.426
644.293	25295.596
644.421	25308.553
644.549	25381.702
644.677	25432.532
644.805	25485.809
644.933	25438.894
645.062	25560.830
645.190	25547.723
645.318	25648.596
645.446	25646.362
645.574	25779.830
645.702	25780.426
645.830	25955.894
645.958	25752.574
646.087	26018.447
646.215	25847.255
646.343	26090.681
646.471	25979.702
646.599	26092.617
646.727	26004.043
646.855	25993.255
646.983	26099.106
647.112	26089.532
647.240	26258.383
647.368	26115.340
647.496	26158.128
647.624	26128.277
647.752	26129.043
647.880	26218.000
648.008	26173.340
648.137	26162.149
648.265	26204.319
648.393	26203.979
648.521	26230.489
648.649	26277.447
648.777	26352.596
648.905	26233.362
649.033	26240.745
649.162	26255.426
649.290	26372.979
649.418	26294.936
649.546	26320.787
649.674	26381.213
649.802	26366.723
649.930	26533.362
650.058	26354.447
650.187	26377.255
650.315	26439.234
650.443	26454.766
650.571	26459.745
650.699	26481.532
650.827	26528.319
650.955	26524.553
651.083	26571.638
651.212	26557.468
651.340	26602.191
651.468	26587.532
651.596	26597.830
651.724	26623.383
651.852	26686.298
651.980	26619.894
652.108	26719.043
652.237	26691.043
652.365	26784.766
652.493	26725.553
652.621	26727.745
652.749	26833.106
652.877	26754.319
653.005	26823.234
653.133	26808.830
653.262	26896.383
653.390	26864.532
653.518	26941.021
653.646	26947.234
653.774	27169.532
653.902	26892.021
654.030	27011.872
654.158	27026.957
654.287	27075.936
654.415	27078.957
654.543	27136.170
654.671	27040.574
654.799	27160.404
654.927	27136.191
655.055	27117.553
655.183	27157.298
655.312	27233.234
655.440	27291.489
655.568	27221.936
655.696	27298.383
655.824	27429.681
655.952	27357.851
656.080	27279.468
656.208	27409.894
656.337	27291.489
656.465	27433.574
656.593	27417.362
656.721	27366.638
656.849	27363.979
656.977	27403.234
657.105	27352.064
657.233	27431.936
657.362	27451.532
657.490	27392.936
657.618	27470.447
657.746	27552.000
657.874	27429.766
658.002	27462.830
658.130	27502.702
658.258	27474.000
658.387	27544.915
658.515	27496.043
658.643	27583.106
658.771	27545.191
658.899	27709.319
659.027	27584.064
659.155	27605.021
659.283	27710.702
659.412	27599.553
659.540	27699.362
659.668	27595.894
659.796	27689.979
659.924	27777.170
660.052	27749.128
660.180	27705.489
660.308	27787.362
660.437	27823.979
660.565	27811.660
660.693	27737.936
660.821	27875.340
660.949	27875.362
661.077	27887.872
661.205	27884.511
661.333	27930.915
661.462	28024.638
661.590	28009.872
661.718	28176.915
661.846	28096.723
661.974	28230.745
662.102	28043.574
662.230	28123.404
662.358	28088.681
662.487	28143.489
662.615	28173.191
662.743	28097.936
662.871	28260.298
662.999	28276.043
663.127	28289.404
663.255	28367.809
663.383	28421.447
663.512	28363.170
663.640	28535.106
663.768	28559.277
663.896	28615.660
664.024	28631.277
664.152	28597.702
664.280	28753.447
664.408	28731.872
664.537	28857.830
664.665	28774.574
664.793	28720.298
664.921	28795.043
665.049	28906.936
665.177	28924.723
665.305	28986.979
665.433	28925.362
665.562	28942.085
665.690	29095.191
665.818	29186.340
665.946	29105.277
666.074	29112.277
666.202	29181.000
666.330	29257.681
666.458	29220.064
666.587	29287.681
666.715	29275.532
666.843	29387.128
666.971	29344.085
667.099	29374.340
667.227	29381.894
667.355	29436.851
667.483	29408.702
667.612	29481.191
667.740	29583.340
667.868	29608.000
667.996	29606.128
668.124	29582.957
668.252	29650.702
668.380	29649.426
668.508	29661.404
668.637	29711.404
668.765	29747.745
668.893	29743.574
669.021	29711.745
669.149	29764.553
669.277	29831.043
669.405	29785.745
669.533	29824.106
669.662	30101.830
669.790	29857.234
669.918	29874.000
670.046	29850.532
670.174	29893.298
670.302	29940.340
670.430	29871.936
670.558	29929.809
670.687	29826.213
670.815	29981.574
670.943	29820.447
671.071	29761.319
671.199	29777.766
671.327	29787.447
671.455	29812.085
671.583	29751.298
671.712	29905.894
671.840	29837.681
671.968	29684.872
672.096	29707.872
672.224	29655.383
672.352	29772.660
672.480	29637.021
672.608	29641.128
672.737	29533.170
672.865	29699.149
672.993	29473.787
673.121	29463.404
673.249	29334.255
673.377	29440.809
673.505	29343.447
673.633	29258.404
673.762	29198.574
673.890	29194.787
674.018	29469.830
674.146	29113.489
674.274	29126.787
674.402	29285.000
674.530	29099.085
674.658	29057.660
674.787	28943.340
674.915	28893.787
675.043	28900.936
675.171	28902.021
675.299	28802.553
675.427	28769.404
675.555	28749.085
675.683	28658.809
675.812	28710.957
675.940	28657.255
676.068	28616.468
676.196	28596.511
676.324	28530.170
676.452	28471.830
676.580	28348.106
676.708	28354.234
676.837	28357.511
676.965	28341.277
677.093	28284.851
677.221	28223.723
677.349	28275.426
677.477	28283.851
677.605	28172.468
677.733	28188.298
677.862	28024.681
677.990	28080.149
678.118	28014.787
678.246	28051.511
678.374	28055.702
678.502	27963.170
678.630	27960.830
678.758	27908.149
678.887	27871.404
679.015	27817.298
679.143	27843.681
679.271	27786.255
679.399	27809.915
679.527	27750.809
679.655	27709.872
679.783	27788.213
679.912	27817.745
680.040	27733.745
680.168	27663.787
680.296	27622.766
680.424	27637.191
680.552	27634.404
680.680	27607.362
680.808	27635.766
680.937	27570.574
681.065	27543.149
681.193	27551.277
681.321	27542.894
681.449	27493.936
681.577	27552.681
681.705	27506.106
681.833	27541.936
681.962	27404.511
682.090	27596.617
682.218	27464.000
682.346	27427.532
682.474	27422.447
682.602	27370.830
682.730	27466.255
682.858	27373.043
682.987	27386.298
683.115	27446.043
683.243	27313.128
683.371	27346.489
683.499	27364.809
683.627	27329.936
683.755	27312.915
683.883	27389.745
684.012	27318.404
684.140	27266.404
684.268	27156.766
684.396	27280.915
684.524	27236.277
684.652	27384.106
684.780	27296.170
684.908	27250.064
685.037	27214.681
685.165	27122.149
685.293	27111.021
685.421	27155.766
685.549	27158.298
685.677	27044.766
685.805	27204.830
685.933	27119.745
686.062	26961.894
686.190	26966.447
686.318	27046.851
686.446	26886.085
686.574	26886.532
686.702	26967.426
686.830	26856.277
686.958	26784.532
687.087	26852.298
687.215	26830.936
687.343	26755.000
687.471	26709.660
687.599	26622.553
687.727	26771.021
687.855	26607.723
687.983	26655.170
688.112	26625.213
688.240	26489.787
688.368	26451.447
688.496	26403.681
688.624	26378.404
688.752	26251.043
688.880	26234.830
689.008	26198.085
689.137	26131.000
689.265	26047.596
689.393	25999.404
689.521	25976.362
689.649	25933.085
689.777	25844.872
689.905	25831.362
690.033	25759.383
690.162	25664.298
690.290	25660.830
690.418	25505.064
690.546	25599.234
690.674	25458.915
690.802	25363.638
690.930	25373.596
691.058	25290.660
691.187	25214.170
691.315	25095.021
691.443	25084.511
691.571	25000.638
691.699	25040.000
691.827	24977.617
691.955	24879.383
692.083	24719.745
692.212	24794.596
692.340	24658.723
692.468	24621.766
692.596	24576.340
692.724	24587.043
692.852	24402.383
692.980	24438.638
693.108	24283.596
693.237	24175.277
693.365	24052.426
693.493	23993.340
693.621	23963.213
693.749	23949.979
693.877	23831.404
694.005	23826.957
694.133	23735.489
694.262	23720.277
694.390	23550.596
694.518	23547.064
694.646	23464.957
694.774	23404.745
694.902	23452.277
695.030	23274.766
695.158	23159.298
695.287	23216.426
695.415	23057.191
695.543	23022.426
695.671	23021.234
695.799	22907.553
695.927	22859.191
696.055	22754.766
696.183	22671.085
696.312	22697.936
696.440	22845.021
696.568	22572.404
696.696	22543.787
696.824	22384.277
696.952	22280.255
697.080	22336.915
697.208	22126.298
697.337	22123.638
697.465	22120.681
697.593	21997.638
697.721	21946.383
697.849	21923.340
697.977	21892.383
698.105	21819.957
698.233	21743.468
698.362	21688.723
698.490	21642.894
698.618	21487.915
698.746	21611.851
698.874	21424.255
699.002	21630.809
699.130	21281.553
699.258	21290.043
699.387	21059.149
699.515	21151.809
699.643	21055.021
699.771	20998.191
699.899	20904.660
700.027	20848.213
700.155	20786.319
700.283	20692.043
700.412	20671.340
700.540	20551.468
700.668	20524.851
700.796	20366.532
700.924	20307.298
701.052	20258.894
701.180	20331.277
701.308	20154.149
701.437	19995.277
701.565	19928.489
701.693	19787.128
701.821	19824.149
701.949	19734.000
702.077	19611.128
702.205	19535.532
702.333	19460.191
702.462	19351.191
702.590	19252.702
702.718	19183.170
702.846	19135.404
702.974	19059.149
703.102	19022.872
703.230	18923.532
703.358	18839.574
703.487	18689.511
703.615	18815.255
703.743	18528.787
703.871	18403.085
703.999	18395.638
704.127	18393.383
704.255	18087.277
704.383	18279.340
704.512	18079.809
704.640	17959.702
704.768	17829.809
704.896	17779.383
705.024	17633.660
705.152	17691.681
705.280	17512.362
705.408	17388.702
705.537	17343.447
705.665	17175.894
705.793	17205.936
705.921	17069.872
706.049	17005.489
706.177	16892.809
706.305	16858.681
706.433	16839.000
706.562	16678.213
706.690	16523.787
706.818	16466.511
706.946	16619.000
707.074	16365.064
707.202	16223.681
707.330	16289.894
707.458	16165.000
707.587	16016.489
707.715	15958.234
707.843	15918.745
707.971	15864.021
708.099	15852.936
708.227	15673.851
708.355	15589.723
708.483	15484.766
708.612	15457.447
708.740	15441.638
708.868	15446.532
708.996	15340.872
709.124	15249.660
709.252	15151.383
709.380	15042.872
709.508	15092.234
709.637	14944.553
709.765	14907.468
709.893	14874.234
710.021	14793.936
710.149	14681.553
710.277	14710.468
710.405	14587.021
710.533	14551.511
710.662	14485.511
710.790	14376.319
710.918	14378.723
711.046	14315.447
711.174	14240.511
711.302	14241.532
711.430	14214.809
711.558	14039.596
711.687	14052.191
711.815	14024.021
711.943	13922.787
712.071	13881.447
712.199	13859.660
712.327	13758.787
712.455	13679.128
712.583	13694.574
712.712	13586.234
712.840	13529.191
712.968	13489.383
713.096	13479.979
713.224	13352.426
713.352	13354.723
713.480	13286.957
713.608	13218.894
713.737	13195.128
713.865	13118.915
713.993	13115.702
714.121	13019.915
714.249	12967.064
714.377	13002.723
714.505	12895.213
714.633	12968.213
714.762	12838.766
714.890	12743.319
715.018	12665.000
715.146	12657.149
715.274	12644.106
715.402	12713.234
715.530	12561.660
715.658	12340.489
715.787	12369.596
715.915	12492.298
716.043	12222.064
716.171	12322.447
716.299	12247.596
716.427	12157.787
716.555	12056.638
716.683	11996.809
716.812	11915.383
716.940	11958.809
717.068	11776.702
717.196	11983.617
717.324	11869.191
717.452	11686.298
717.580	11678.553
717.708	11579.851
717.837	11570.936
717.965	11438.447
718.093	11419.404
718.221	11362.000
718.349	11334.404
718.477	11304.489
718.605	11232.809
718.733	11115.128
718.862	11065.532
718.990	11009.574
719.118	10996.617
719.246	10883.149
719.374	10920.787
719.502	10806.213
719.630	10907.085
719.758	10635.872
719.887	10635.383
720.015	10729.787
720.143	10460.660
720.271	10393.617
720.399	10417.723
720.527	10373.702
720.655	10330.723
720.783	10317.851
720.912	10130.404
721.040	10134.638
721.168	10018.511
721.296	10008.021
721.424	9948.532
721.552	9815.532
721.680	9795.596
721.808	9740.830
721.937	9718.936
722.065	9698.936
722.193	9710.255
722.321	9504.872
722.449	9445.085
722.577	9386.021
722.705	9295.787
722.833	9303.596
722.962	9303.426
723.090	9151.468
723.218	9054.787
723.346	9041.702
723.474	8980.638
723.602	9078.957
723.730	8984.766
723.858	8989.809
723.987	8829.489
724.115	8816.915
724.243	8699.957
724.371	8638.872
724.499	8625.617
724.627	8478.255
724.755	8433.511
724.883	8422.957
725.012	8354.936
725.140	8392.426
725.268	8285.617
725.396	8159.362
725.524	8098.383
725.652	8112.255
725.780	8014.979
725.908	8024.936
726.037	8091.000
726.165	7899.915
726.293	7817.426
726.421	7741.617
726.549	7735.043
726.677	7708.660
726.805	7612.957
726.933	7586.681
727.062	7562.149
727.190	7529.894
727.318	7421.426
727.446	7387.447
727.574	7374.191
727.702	7405.766
727.830	7230.596
727.958	7269.894
728.087	7188.745
728.215	7262.723
728.343	7191.000
728.471	7040.979
728.599	7013.830
728.727	7065.404
728.855	6910.277
728.983	6848.277
729.112	6848.064
729.240	6805.468
729.368	6764.426
729.496	6741.404
729.624	6700.383
729.752	6606.106
729.880	6658.106
730.008	6543.894
730.137	6503.723
730.265	6695.298
730.393	6452.277
730.521	6515.809
730.649	6384.213
730.777	6357.851
730.905	6285.723
731.033	6383.702
731.162	6467.511
731.290	6362.298
731.418	6403.596
731.546	6326.660
731.674	6172.064
731.802	6181.872
731.930	6038.723
732.058	5992.468
732.187	5981.191
732.315	5959.043
732.443	5883.043
732.571	6021.128
732.699	5877.170
732.827	5895.596
732.955	5787.574
733.083	5718.702
733.212	5784.021
733.340	5741.660
733.468	5748.617
733.596	5581.532
733.724	5619.660
733.852	5554.298
733.980	5558.830
734.108	5704.830
734.237	5563.362
734.365	5555.362
734.493	5450.894
734.621	5397.957
734.749	5379.383
734.877	5390.149
735.005	5361.915
735.133	5360.426
735.262	5359.894
735.390	5218.404
735.518	5333.362
735.646	5169.447
735.774	5127.723
735.902	5118.638
736.030	5083.617
736.158	5099.681
736.287	5009.872
736.415	5164.362
736.543	4991.745
736.671	4967.191
736.799	4930.234
736.927	4952.234
737.055	4883.000
737.183	4942.745
737.312	4905.745
737.440	4820.766
737.568	4796.574
737.696	4736.255
737.824	4774.511
737.952	4729.404
738.080	4664.702
738.208	4671.000
738.337	4678.149
738.465	4656.809
738.593	4574.064
738.721	4518.830
738.849	4518.681
738.977	4507.426
739.105	4510.000
739.233	4430.915
739.362	4439.553
739.490	4335.213
739.618	4339.383
739.746	4303.149
739.874	4459.702
740.002	4377.745
740.130	4313.681
740.258	4205.638
740.387	4137.617
740.515	4309.043
740.643	4100.362
740.771	4151.128
740.899	4090.617
741.027	4124.681
741.155	4148.957
741.283	3998.468
741.412	3952.362
741.540	3974.021
741.668	4039.277
741.796	4039.957
741.924	3921.468
742.052	3830.809
742.180	3974.851
742.308	3787.553
742.437	3791.447
742.565	3886.000
742.693	3921.596
742.821	3806.681
742.949	3762.511
743.077	3672.383
743.205	3660.617
743.333	3663.596
743.462	3617.745
743.590	3636.979
743.718	3514.787
743.846	3543.915
743.974	3522.468
744.102	3628.851
744.230	3515.851
744.358	3449.106
744.487	3400.298
744.615	3439.021
744.743	3342.319
744.871	3331.894
744.999	3397.043
745.127	3320.170
745.255	3244.234
745.383	3265.404
745.512	3262.957
745.640	3174.234
745.768	3212.511
745.896	3173.936
746.024	3150.617
746.152	3136.957
746.280	3109.085
746.408	3127.489
746.537	3170.511
746.665	3045.085
746.793	3084.787
746.921	2979.638
747.049	3159.149
747.177	3014.191
747.305	2986.809
747.433	2993.809
747.562	2915.085
747.690	2968.574
747.818	2912.532
747.946	2821.894
748.074	2922.915
748.202	2828.745
748.330	2909.213
748.458	2820.936
748.587	2768.617
748.715	2699.681
748.843	2765.234
748.971	2770.404
749.099	2721.489
749.227	2741.170
749.355	2637.979
749.483	2647.277
749.612	2646.638
749.740	2650.489
749.868	2683.149
749.996	2636.426
750.124	2538.766
750.252	2587.553
750.380	2545.213
750.508	2557.255
750.637	2530.255
750.765	2604.809
750.893	2522.979
751.021	2519.404
751.149	2649.660
751.277	2547.574
751.405	2550.128
751.533	2606.170
751.662	2547.277
751.790	2532.128
751.918	2488.426
752.046	2468.766
752.174	2426.234
752.302	2520.298
752.430	2423.255
752.558	2390.702
752.687	2401.340
752.815	2397.979
752.943	2369.681
753.071	2364.681
753.199	2355.128
753.327	2383.596
753.455	2344.021
753.583	2311.106
753.712	2317.149
753.840	2305.745
753.968	2258.745
754.096	2250.723
754.224	2208.596
754.352	2205.468
754.480	2206.681
754.608	2199.511
754.737	2183.128
754.865	2192.638
754.993	2168.681
755.121	2154.319
755.249	2220.872
755.377	2133.000
755.505	2116.489
755.633	2130.468
755.762	2069.979
755.890	2148.298
756.018	2099.511
756.146	2057.234
756.274	2039.511
756.402	2028.340
756.530	2006.021
756.658	2036.660
756.787	1999.043
756.915	1942.468
757.043	1972.532
757.171	1946.149
757.299	1914.319
757.427	1915.894
757.555	1907.787
757.683	1923.851
757.812	1860.362
757.940	1867.234
758.068	1831.468
758.196	1819.298
758.324	1820.383
758.452	1895.191
758.580	1794.319
758.708	1808.234
758.837	1761.149
758.965	1861.383
759.093	1742.106
759.221	1727.468
759.349	1737.702
759.477	1696.021
759.605	1693.915
759.733	1670.213
759.862	1678.872
759.990	1662.383
760.118	1645.170
760.246	1614.191
760.374	1618.234
760.502	1639.426
760.630	1608.702
760.758	1603.426
760.887	1565.979
761.015	1563.681
761.143	1552.128
761.271	1538.064
761.399	1528.681
761.527	1520.340
761.655	1516.830
761.783	1490.894
761.912	1487.298
762.040	1456.340
762.168	1507.191
762.296	1462.681
762.424	1446.745
762.552	1440.787
762.680	1476.872
762.808	1391.447
762.937	1413.830
763.065	1451.021
763.193	1444.809
763.321	1388.936
763.449	1348.787
763.577	1369.021
763.705	1341.936
763.833	1429.936
763.962	1345.745
764.090	1321.043
764.218	1340.085
764.346	1316.851
764.474	1289.213
764.602	1292.404
764.730	1262.340
764.858	1300.702
764.987	1272.830
765.115	1299.830
765.243	1253.213
765.371	1229.681
765.499	1224.830
765.627	1216.085
765.755	1218.638
765.883	1225.255
766.012	1215.766
766.140	1194.043
766.268	1201.404
766.396	1165.489
766.524	1185.085
766.652	1174.106
766.780	1161.830
766.908	1156.574
767.037	1155.426
767.165	1163.468
767.293	1193.043
767.421	1133.021
767.549	1136.915
767.677	1122.404
767.805	1105.255
767.933	1121.149
768.062	1130.787
768.190	1110.298
768.318	1084.170
768.446	1110.809
768.574	1112.468
768.702	1100.340
768.830	1074.426
768.958	1063.745
769.087	1054.468
769.215	1051.574
769.343	1047.319
769.471	1026.489
769.599	1087.128
769.727	1043.489
769.855	1029.362
769.983	1030.830
770.112	1001.936
770.240	1007.957
770.368	1002.447
770.496	989.745
770.624	988.000
770.752	1019.468
770.880	1013.723
771.008	993.213
771.137	985.787
771.265	1021.085
771.393	994.660
771.521	971.277
771.649	949.553
771.777	953.000
771.905	953.213
772.033	958.830
772.162	969.191
772.290	942.574
772.418	997.830
772.546	957.766
772.674	927.936
772.802	953.085
772.930	985.319
773.058	921.404
773.187	930.915
773.315	912.319
773.443	910.787
773.571	910.489
773.699	902.553
773.827	895.596
773.955	933.660
774.083	922.362
774.212	902.340
774.340	909.447
774.468	885.021
774.596	889.660
774.724	886.872
774.852	867.021
774.980	880.553
775.108	859.723
775.237	864.617
775.365	869.213
775.493	859.532
775.621	838.702
775.749	841.851
775.877	842.915
776.005	840.064
776.133	862.447
776.262	853.383
776.390	817.149
776.518	859.426
776.646	818.979
776.774	825.468
776.902	817.404
777.030	817.489
777.158	817.085
777.287	833.213
777.415	787.574
777.543	790.702
777.671	791.745
777.799	776.702
777.927	782.383
778.055	793.617
778.183	777.234
778.312	744.830
778.440	761.043
778.568	787.532
778.696	761.957
778.824	763.660
778.952	760.574
779.080	743.106
779.208	770.489
779.337	761.830
779.465	752.745
779.593	745.064
779.721	756.574
779.849	739.915
779.977	726.723
780.105	711.851
780.233	736.064
780.362	753.128
780.490	748.362
780.618	709.532
780.746	708.745
780.874	696.723
781.002	715.149
781.130	687.064
781.258	678.596
781.387	703.404
781.515	720.085
781.643	693.979
781.771	720.319
781.899	677.660
782.027	729.106
782.155	691.255
782.283	679.511
782.412	662.404
782.540	678.149
782.668	701.000
782.796	644.170
782.924	695.511
783.052	636.766
783.180	683.234
783.308	648.255
783.437	638.319
783.565	646.404
783.693	648.809
783.821	645.766
783.949	623.553
784.077	658.894
784.205	638.830
784.333	676.830
784.462	611.532
784.590	625.596
784.718	626.149
784.846	613.170
784.974	626.532
785.102	660.660
785.230	614.851
785.358	657.000
785.487	616.340
785.615	610.723
785.743	602.106
785.871	602.915
785.999	597.489
786.127	575.000
786.255	603.043
786.383	619.723
786.512	612.574
786.640	583.681
786.768	603.234
786.896	578.851
787.024	590.191
787.152	583.255
787.280	576.553
787.408	563.362
787.537	586.064
787.665	566.894
787.793	597.638
787.921	578.234
788.049	572.404
788.177	557.319
788.305	549.468
788.433	578.340
788.562	543.085
788.690	545.149
788.818	552.511
788.946	560.766
789.074	535.340
789.202	557.191
789.330	559.447
789.458	539.383
789.587	594.511
789.715	535.255
789.843	524.085
789.971	535.255
790.099	529.319
790.227	538.830
790.355	522.298
790.483	546.830
790.612	524.064
790.740	523.596
790.868	540.319
790.996	525.638
791.124	523.532
791.252	513.872
791.380	526.383
791.508	518.723
791.637	515.064
791.765	499.681
791.893	498.894
792.021	500.915
792.149	501.681
792.277	504.064
792.405	486.447
792.533	510.596
792.662	478.915
792.790	481.574
792.918	502.064
793.046	478.298
793.174	507.362
793.302	490.553
793.430	491.064
793.558	476.277
793.687	487.511
793.815	477.298
793.943	495.872
794.071	494.447
794.199	477.000
794.327	470.872
794.455	548.340
794.583	573.064
794.712	459.830
794.840	468.957
794.968	470.979
795.096	489.468
795.224	451.426
795.352	458.702
795.480	487.383
795.608	463.426
795.737	459.255
795.865	448.255
795.993	438.298
796.121	431.681
796.249	454.702
796.377	453.638
796.505	440.702
796.633	432.191
796.762	433.170
796.890	449.426
797.018	456.723
797.146	419.745
797.274	418.000
797.402	433.170
797.530	444.830
797.658	424.511
797.787	463.234
797.915	420.468
798.043	428.766
798.171	413.489
798.299	428.766
798.427	409.915
798.555	419.213
798.683	401.915
798.812	412.000
798.940	475.234
799.068	416.957
799.196	451.574
799.324	403.894
799.452	408.660
799.580	392.936
799.708	455.532
799.837	392.702
799.965	400.894
800.093	413.489
800.221	378.660
800.349	395.957
800.477	402.936
800.605	398.809
800.733	409.745
800.862	396.128
800.990	424.617
801.118	370.149
801.246	373.234
801.374	397.043
801.502	389.596
801.630	372.170
801.758	388.596
801.887	397.128
802.015	369.362
802.143	368.851
802.271	394.489
802.399	376.383
802.527	366.043
802.655	405.574
802.783	417.830
802.912	377.128
803.040	367.702
803.168	353.957
803.296	346.426
803.424	374.447
803.552	357.766
803.680	362.553
803.808	366.170
803.937	359.830
804.065	350.085
804.193	354.915
804.321	399.851
804.449	344.809
804.577	347.681
804.705	361.553
804.833	391.191
804.962	348.362
805.090	349.957
805.218	365.149
805.346	355.340
805.474	358.723
805.602	376.383
805.730	346.362
805.858	334.894
805.987	350.681
806.115	356.872
806.243	354.255
806.371	373.255
806.499	454.979
806.627	464.213
806.755	442.511
806.883	353.404
807.012	335.745
807.140	360.574
807.268	350.000
807.396	352.404
807.524	320.936
807.652	340.021
807.780	394.319
807.908	334.766
808.037	383.277
808.165	355.681
808.293	341.787
808.421	382.426
808.549	323.426
808.677	329.043
808.805	372.468
808.933	331.064
809.062	350.851
809.190	374.000
809.318	331.191
809.446	321.319
809.574	374.532
809.702	319.617
809.830	337.702
809.958	329.149
810.087	321.298
810.215	347.191
810.343	336.106
810.471	331.681
810.599	307.447
810.727	318.468
810.855	304.128
810.983	307.277
811.112	323.277
811.240	320.170
811.368	339.021
811.496	358.404
811.624	331.404
811.752	310.191
811.880	318.638
812.008	298.915
812.137	321.596
812.265	292.915
812.393	330.745
812.521	338.277
812.649	313.596
812.777	311.638
812.905	343.830
813.033	291.574
813.162	298.936
813.290	306.043
813.418	321.000
813.546	304.149
813.674	304.298
813.802	317.362
813.930	292.936
814.058	291.511
814.187	310.043
814.315	300.362
814.443	310.085
814.571	318.638
814.699	324.936
814.827	298.596
814.955	298.404
815.083	329.511
815.212	319.681
815.340	330.319
815.468	284.851
815.596	300.340
815.724	306.979
815.852	298.553
815.980	295.617
816.108	291.809
816.237	285.064
816.365	302.553
816.493	300.638
816.621	290.021
816.749	305.894
816.877	301.638
817.005	313.702
817.133	308.872
817.262	282.191
817.390	296.128
817.518	287.851
817.646	297.532
817.774	284.957
817.902	283.702
818.030	283.426
818.158	328.234
818.287	303.489
818.415	271.447
818.543	290.340
818.671	301.340
818.799	283.319
818.927	297.596
819.055	298.234
819.183	275.170
819.312	289.255
819.440	279.872
819.568	277.468
819.696	287.660
819.824	303.021
819.952	276.426
820.080	287.745
820.208	280.596
820.337	274.255
820.465	312.191
820.593	279.043
820.721	278.340
820.849	286.936
820.977	274.447
821.105	297.021
821.233	259.447
821.362	303.574
821.490	263.149
821.618	271.957
821.746	273.766
821.874	278.809
822.002	273.149
822.130	277.255
822.258	260.149
822.387	262.532
822.515	285.809
822.643	282.936
822.771	280.128
822.899	276.340
823.027	317.830
823.155	259.298
823.283	257.340
823.412	281.128
823.540	268.213
823.668	323.170
823.796	265.383
823.924	293.851
824.052	298.404
824.180	280.915
824.308	259.362
824.437	260.234
824.565	265.085
824.693	288.957
824.821	275.043
824.949	270.064
825.077	272.766
825.205	302.170
825.333	288.319
825.462	290.085
825.590	270.106
825.718	286.915
825.846	266.021
825.974	261.723
826.102	255.979
826.230	260.255
826.358	265.043
826.487	255.085
826.615	301.128
826.743	250.277
826.871	281.128
826.999	311.787
827.127	275.043
827.255	272.298
827.383	252.723
827.512	284.064
827.640	255.043
827.768	251.043
827.896	275.723
828.024	253.277
828.152	263.149
828.280	259.723
828.408	259.936
828.537	257.660
828.665	267.404
828.793	266.128
828.921	246.255
829.049	280.021
829.177	249.979
829.305	250.489
829.433	266.894
829.562	274.085
829.690	247.404
829.818	282.745
829.946	260.447
830.074	259.574
830.202	273.000
830.330	280.362
830.458	298.745
830.587	262.043
830.715	262.723
830.843	257.638
830.971	265.213
831.099	284.915
831.227	250.553
831.355	245.979
831.483	265.277
831.612	289.000
831.740	256.298
831.868	254.723
831.996	251.787
832.124	244.277
832.252	229.426
832.380	266.979
832.508	305.043
832.637	251.383
832.765	259.213
832.893	290.915
833.021	245.574
833.149	240.426
833.277	257.532
833.405	240.234
833.533	240.830
833.662	249.255
833.790	245.447
833.918	260.638
834.046	288.064
834.174	252.596
834.302	245.021
834.430	243.809
834.558	251.766
834.687	263.362
834.815	240.532
834.943	249.489
835.071	248.660
835.199	254.936
835.327	270.362
835.455	241.000
835.583	276.234
835.712	238.872
835.840	244.319
835.968	239.723
836.096	295.085
836.224	262.660
836.352	234.043
836.480	254.830
836.608	254.532
836.737	239.809
836.865	241.128
836.993	252.532
837.121	246.064
837.249	237.532
837.377	266.787
837.505	254.787
837.633	238.106
837.762	241.468
837.890	270.915
838.018	279.915
838.146	286.213
838.274	254.702
838.402	267.255
838.530	242.170
838.658	231.298
838.787	252.936
838.915	248.170
839.043	233.319
839.171	269.298
839.299	232.894
839.427	243.894
839.555	250.383
839.683	259.830
839.812	276.915
839.940	238.298
840.068	256.106
840.196	256.362
840.324	237.872
840.452	246.468
840.580	280.723
840.708	243.532
840.837	277.170
840.965	234.489
841.093	249.277
841.221	241.787
841.349	246.319
841.477	251.021
841.605	254.660
841.733	240.043
841.862	243.128
841.990	288.851
842.118	227.319
842.246	235.234
842.374	240.596
842.502	232.787
842.630	255.681
842.758	260.745
842.887	233.830
843.015	243.404
843.143	267.213
843.271	238.298
843.399	279.255
843.527	252.298
843.655	226.149
843.783	239.681
843.912	230.021
844.040	271.957
844.168	229.043
844.296	230.745
844.424	231.681
844.552	252.128
844.680	256.000
844.808	257.745
844.937	241.596
845.065	239.787
845.193	261.574
845.321	236.979
845.449	241.170
845.577	242.553
845.705	239.894
845.833	229.447
845.962	251.872
846.090	232.426
846.218	241.979
846.346	250.681
846.474	252.489
846.602	237.596
846.730	269.957
846.858	256.532
846.987	240.617
847.115	228.298
847.243	263.149
847.371	255.191
847.499	252.723
847.627	234.447
847.755	234.043
847.883	247.298
848.012	249.511
848.140	244.340
848.268	254.787
848.396	231.553
848.524	264.021
848.652	218.170
848.780	235.766
848.908	243.915
849.037	228.723
849.165	253.000
849.293	248.979
849.421	253.213
849.549	241.830
849.677	244.553
849.805	241.340
849.933	244.553
850.062	236.745
850.190	233.617
850.318	243.149
850.446	231.872
850.574	226.000
850.702	238.489
850.830	238.660
850.958	250.532
851.087	218.106
851.215	245.468
851.343	231.064
851.471	233.340
851.599	242.064
851.727	237.277
851.855	289.170
851.983	242.383
852.112	238.043
852.240	234.191
852.368	239.638
852.496	232.149
852.624	229.383
852.752	235.149
852.880	220.064
853.008	243.106
853.137	246.596
853.265	254.915
853.393	238.191
853.521	245.000
853.649	243.277
853.777	232.851
853.905	247.043
854.033	236.702
854.162	293.745
854.290	236.170
854.418	220.255
854.546	227.830
854.674	333.149
854.802	235.000
854.930	217.979
855.058	216.021
855.187	218.277
855.315	252.489
855.443	214.957
855.571	220.149
855.699	228.021
855.827	230.000
855.955	236.681
856.083	228.723
856.212	241.277
856.340	219.277
856.468	282.809
856.596	253.489
856.724	236.404
856.852	234.234
856.980	225.255
857.108	249.170
857.237	213.021
857.365	257.319
857.493	231.362
857.621	218.894
857.749	237.426
857.877	247.064
858.005	253.596
858.133	232.064
858.262	231.383
858.390	221.043
858.518	215.617
858.646	218.830
858.774	231.851
858.902	210.617
859.030	225.085
859.158	238.915
859.287	240.106
859.415	254.872
859.543	225.234
859.671	221.936
859.799	245.787
859.927	239.106
860.055	232.255
860.183	241.489
860.312	231.319
860.440	231.255
860.568	230.085
860.696	217.617
860.824	290.234
860.952	268.830
861.080	227.553
861.208	235.660
861.337	246.766
861.465	266.383
861.593	257.255
861.721	229.851
861.849	225.000
861.977	209.638
862.105	237.872
862.233	262.106
862.362	238.064
862.490	249.511
862.618	213.638
862.746	233.319
862.874	225.149
863.002	222.340
863.130	253.043
863.258	228.702
863.387	242.553
863.515	249.191
863.643	237.362
863.771	302.809
863.899	226.702
864.027	224.723
864.155	221.915
864.283	253.936
864.412	232.255
864.540	227.489
864.668	222.426
864.796	226.894
864.924	238.191
865.052	237.277
865.180	220.553
865.308	208.191
865.437	233.000
865.565	239.043
865.693	254.532
865.821	231.021
865.949	254.298
866.077	229.872
866.205	242.404
866.333	241.489
866.462	219.872
866.590	234.511
866.718	242.191
866.846	220.936
866.974	245.298
867.102	247.170
867.230	265.553
867.358	237.915
867.487	219.404
867.615	249.681
867.743	233.723
867.871	239.447
867.999	233.574
868.127	227.021
868.255	277.234
868.383	272.723
868.512	224.362
868.640	225.596
868.768	213.340
868.896	217.532
869.024	257.064
869.152	236.064
869.280	239.447
869.408	267.851
869.537	224.277
869.665	295.489
869.793	221.064
869.921	262.447
870.049	234.085
870.177	234.468
870.305	270.489
870.433	216.979
870.562	245.383
870.690	217.979
870.818	217.915
870.946	234.957
871.074	258.745
871.202	242.340
871.330	247.766
871.458	205.383
871.587	227.085
871.715	232.660
871.843	223.894
871.971	221.915
872.099	228.383
872.227	228.851
872.355	244.043
872.483	238.191
872.612	240.787
872.740	239.638
872.868	219.851
872.996	233.489
873.124	227.681
873.252	232.106
873.380	228.170
873.508	217.043
873.637	245.298
873.765	226.511
873.893	281.021
874.021	235.234
874.149	220.000
874.277	237.277
874.405	219.936
874.533	226.894
874.662	1124.277
874.790	231.191
874.918	262.830
875.046	252.064
875.174	238.915
875.302	216.894
875.430	261.447
875.558	241.319
875.687	242.809
875.815	230.787
875.943	220.681
876.071	240.894
876.199	258.681
876.327	268.979
876.455	229.021
876.583	245.404
876.712	226.064
876.840	238.723
876.968	271.213
877.096	219.511
877.224	216.298
877.352	280.170
877.480	222.426
877.608	228.702
877.737	241.043
877.865	229.106
877.993	245.277
878.121	218.745
878.249	219.936
878.377	224.021
878.505	233.319
878.633	232.766
878.762	227.894
878.890	222.319
879.018	297.468
879.146	238.766
879.274	218.936
879.402	247.660
879.530	240.213
879.658	214.340
879.787	228.596
879.915	231.532
880.043	256.638
880.171	215.809
880.299	248.447
880.427	233.106
880.555	230.426
880.683	254.894
880.812	221.979
880.940	260.872
881.068	215.851
881.196	224.596
881.324	238.191
881.452	216.979
881.580	251.426
881.708	247.404
881.837	243.298
881.965	240.553
882.093	243.596
882.221	217.681
882.349	264.766
882.477	252.426
882.605	237.447
882.733	225.915
882.862	271.447
882.990	239.362
883.118	228.000
883.246	240.426
883.374	226.872
883.502	223.426
883.630	214.255
883.758	228.128
883.887	237.468
884.015	216.319
884.143	232.957
884.271	243.511
884.399	220.447
884.527	225.468
884.655	219.128
884.783	246.128
884.912	244.021
885.040	221.404
885.168	293.234
885.296	226.574
885.424	236.766
885.552	247.085
885.680	230.872
885.808	219.043
885.937	237.298
886.065	244.894
886.193	221.234
886.321	268.085
886.449	220.170
886.577	267.957
886.705	225.064
886.833	219.234
886.962	224.021
887.090	230.638
887.218	232.766
887.346	243.340
887.474	254.553
887.602	236.404
887.730	234.894
887.858	254.894
887.987	230.468
888.115	267.957
888.243	231.021
888.371	236.766
888.499	217.723
888.627	243.085
888.755	237.617
888.883	228.872
889.012	223.915
889.140	232.617
889.268	248.085
889.396	241.149
889.524	227.191
889.652	219.128
889.780	213.936
889.908	255.362
890.037	222.638
890.165	223.957
890.293	251.319
890.421	283.511
890.549	235.596
890.677	232.447
890.805	220.362
890.933	255.277
891.062	229.851
891.190	228.426
891.318	236.872
891.446	227.298
891.574	220.915
891.702	224.213
891.830	225.596
891.958	258.128
892.087	258.766
892.215	237.404
892.343	235.553
892.471	243.170
892.599	224.085
892.727	250.872
892.855	218.830
892.983	218.170
893.112	230.553
893.240	220.830
893.368	258.064
893.496	235.447
893.624	239.362
893.752	293.043
893.880	268.660
894.008	211.574
894.137	235.894
894.265	235.298
894.393	230.255
894.521	232.702
894.649	256.894
894.777	228.213
894.905	215.957
895.033	262.511
895.162	224.894
895.290	261.362
895.418	245.979
895.546	239.702
895.674	308.234
895.802	220.894
895.930	245.213
896.058	210.021
896.187	220.511
896.315	215.638
896.443	225.596
896.571	223.447
896.699	227.702
896.827	237.149
896.955	236.702
897.083	220.404
897.212	263.106
897.340	228.340
897.468	207.617
897.596	219.043
897.724	273.213
897.852	233.745
897.980	224.766
898.108	229.489
898.237	226.043
898.365	218.681
898.493	228.106
898.621	229.404
898.749	228.553
898.877	236.574
899.005	213.511
899.133	226.574
899.262	240.532
899.390	263.702
899.518	230.447
899.646	228.553
899.774	257.149
899.902	303.255
900.030	242.617
900.158	234.191
900.287	240.468
900.415	207.872
900.543	234.511
900.671	224.766
900.799	263.149
900.927	220.787
901.055	225.787
901.183	232.340
901.312	253.064
901.440	241.979
901.568	239.574
901.696	230.000
901.824	240.426
901.952	245.064
902.080	343.298
902.208	257.617
902.337	222.745
902.465	237.149
902.593	233.234
902.721	229.872
902.849	233.319
902.977	244.574
903.105	229.638
903.233	249.809
903.362	229.894
903.490	241.085
903.618	231.766
903.746	244.298
903.874	223.702
904.002	233.787
904.130	242.277
904.258	250.617
904.387	228.000
904.515	247.553
904.643	210.745
904.771	227.021
904.899	248.383
905.027	250.170
905.155	238.191
905.283	237.277
905.412	257.404
905.540	234.851
905.668	231.766
905.796	231.149
905.924	223.532
906.052	230.277
906.180	257.170
906.308	234.851
906.437	265.638
906.565	233.170
906.693	235.000
906.821	218.681
906.949	232.787
907.077	243.021
907.205	233.830
907.333	237.404
907.462	230.170
907.590	225.000
907.718	259.021
907.846	276.851
907.974	227.745
908.102	237.000
908.230	258.213
908.358	272.213
908.487	240.553
908.615	243.149
908.743	243.723
908.871	294.766
908.999	236.213
909.127	267.957
909.255	217.213
909.383	226.234
909.512	265.872
909.640	241.085
909.768	239.340
909.896	290.128
910.024	267.404
910.152	241.745
910.280	278.723
910.408	236.043
910.537	239.447
910.665	269.340
910.793	238.319
910.921	254.830
911.049	227.851
911.177	228.383
911.305	256.638
911.433	237.426
911.562	246.170
911.690	246.936
911.818	290.872
911.946	234.979
912.074	254.787
912.202	271.745
912.330	241.191
912.458	241.745
912.587	252.723
912.715	265.404
912.843	265.830
912.971	260.489
913.099	277.745
913.227	260.298
913.355	247.319
913.483	256.000
913.612	255.128
913.740	381.106
913.868	253.447
