90pol_90_110_at_750.00nm_cut_at_984.50Y_01.dat
24.04.2023
10:41:44
cut middle at Y: 984.50
top cursor: 1008 down cursor: 961 mean of: 47 lines , 2560 datapoints
wavelength(nm)	intensity[arb. units]
585.996	17352.489
586.124	16819.191
586.252	16675.085
586.380	16724.766
586.508	16781.000
586.637	16865.468
586.765	16842.404
586.893	16905.426
587.021	16951.936
587.149	17042.532
587.277	16968.000
587.405	17099.894
587.533	17023.255
587.662	17153.766
587.790	17142.553
587.918	17105.787
588.046	17121.255
588.174	17077.043
588.302	17199.979
588.430	17062.787
588.558	17076.043
588.687	17098.787
588.815	17056.447
588.943	17080.213
589.071	17052.979
589.199	17146.957
589.327	17148.617
589.455	17010.638
589.583	17154.872
589.712	17182.979
589.840	17055.596
589.968	17092.362
590.096	17119.170
590.224	17103.255
590.352	17121.170
590.480	17080.128
590.608	17146.447
590.737	17172.234
590.865	17176.468
590.993	17112.064
591.121	17143.404
591.249	17125.106
591.377	17151.702
591.505	17186.851
591.633	17130.362
591.762	17165.596
591.890	17299.191
592.018	17197.447
592.146	17166.447
592.274	17154.574
592.402	17205.511
592.530	17228.723
592.658	17470.596
592.787	17290.553
592.915	17393.149
593.043	17366.000
593.171	17353.936
593.299	17432.979
593.427	17487.213
593.555	17518.447
593.683	17532.447
593.812	17643.298
593.940	17572.617
594.068	17624.511
594.196	17764.319
594.324	17796.787
594.452	17752.383
594.580	17822.085
594.708	17824.574
594.837	17851.085
594.965	17986.000
595.093	18053.468
595.221	18036.979
595.349	18219.957
595.477	18157.745
595.605	18160.362
595.733	18157.532
595.862	18440.979
595.990	18245.000
596.118	18332.064
596.246	18505.745
596.374	18444.617
596.502	18406.191
596.630	18384.000
596.758	18447.681
596.887	18446.872
597.015	18538.936
597.143	18546.021
597.271	18560.106
597.399	18533.660
597.527	18555.149
597.655	18586.574
597.783	18537.553
597.912	18532.149
598.040	18574.085
598.168	18641.702
598.296	18588.255
598.424	18538.979
598.552	18581.574
598.680	18538.936
598.808	18601.383
598.937	18524.085
599.065	18439.319
599.193	18546.362
599.321	18634.064
599.449	18406.915
599.577	18422.596
599.705	18513.638
599.833	18427.191
599.962	18469.766
600.090	18484.362
600.218	18515.596
600.346	18554.745
600.474	18501.277
600.602	18499.191
600.730	18570.064
600.858	18662.681
600.987	18801.298
601.115	18681.000
601.243	18748.617
601.371	18807.957
601.499	18857.340
601.627	18886.383
601.755	18927.809
601.883	19032.404
602.012	19117.426
602.140	19056.085
602.268	19236.681
602.396	19222.404
602.524	19415.745
602.652	19387.447
602.780	19446.532
602.908	19552.340
603.037	19605.723
603.165	19652.574
603.293	19707.426
603.421	19837.000
603.549	19934.489
603.677	20034.702
603.805	20037.213
603.933	20166.319
604.062	20260.000
604.190	20287.362
604.318	20372.766
604.446	20491.340
604.574	20550.085
604.702	20643.128
604.830	20708.638
604.958	20748.574
605.087	20873.511
605.215	20948.447
605.343	20986.468
605.471	21117.149
605.599	21185.106
605.727	21177.298
605.855	21251.830
605.983	21251.191
606.112	21336.106
606.240	21393.298
606.368	21417.426
606.496	21633.851
606.624	21523.830
606.752	21527.170
606.880	21707.936
607.008	21761.979
607.137	21720.298
607.265	21527.638
607.393	21571.681
607.521	21722.936
607.649	21599.128
607.777	21647.766
607.905	21650.298
608.033	21584.830
608.162	21581.745
608.290	21644.362
608.418	21516.830
608.546	21642.213
608.674	21504.383
608.802	21509.723
608.930	21535.170
609.058	21583.404
609.187	21666.638
609.315	21553.702
609.443	21591.085
609.571	21599.574
609.699	21600.404
609.827	21608.617
609.955	21535.383
610.083	21578.213
610.212	21604.702
610.340	21540.085
610.468	21649.319
610.596	21596.617
610.724	21696.702
610.852	21603.872
610.980	21587.170
611.108	21752.340
611.237	21628.915
611.365	21739.255
611.493	21664.426
611.621	21803.213
611.749	21803.809
611.877	21921.809
612.005	21872.915
612.133	22054.660
612.262	22002.872
612.390	22042.255
612.518	22074.766
612.646	22233.340
612.774	22197.447
612.902	22309.128
613.030	22453.191
613.158	22635.426
613.287	22600.511
613.415	22584.596
613.543	22539.915
613.671	22490.319
613.799	22723.915
613.927	22615.298
614.055	22691.660
614.183	22812.468
614.312	22726.511
614.440	22944.021
614.568	22883.681
614.696	22984.128
614.824	23148.319
614.952	23080.404
615.080	23187.809
615.208	23295.021
615.337	23320.340
615.465	23412.766
615.593	23622.128
615.721	23684.617
615.849	23838.064
615.977	23856.000
616.105	23838.468
616.233	23809.064
616.362	23864.255
616.490	23961.404
616.618	24036.532
616.746	24023.277
616.874	24033.234
617.002	24074.383
617.130	24136.723
617.258	24311.319
617.387	24183.574
617.515	24190.957
617.643	24218.319
617.771	24267.872
617.899	24281.532
618.027	24295.553
618.155	24413.340
618.283	24360.553
618.412	24418.596
618.540	24479.766
618.668	24455.617
618.796	24529.617
618.924	24726.149
619.052	24595.362
619.180	24617.872
619.308	24729.532
619.437	24676.064
619.565	24643.298
619.693	24611.106
619.821	24723.511
619.949	24779.745
620.077	24791.809
620.205	24781.340
620.333	24853.362
620.462	24835.404
620.590	24811.234
620.718	24748.426
620.846	24846.213
620.974	24874.021
621.102	24897.872
621.230	24852.234
621.358	24961.553
621.487	24870.851
621.615	24948.383
621.743	25043.426
621.871	24957.043
621.999	25048.170
622.127	24981.319
622.255	24957.830
622.383	24952.511
622.512	24924.936
622.640	25099.638
622.768	25004.681
622.896	25050.064
623.024	25024.489
623.152	25101.149
623.280	25009.702
623.408	24960.043
623.537	25040.468
623.665	25059.894
623.793	25059.660
623.921	24930.277
624.049	24948.638
624.177	24974.596
624.305	25004.191
624.433	25005.979
624.562	25024.043
624.690	24987.319
624.818	24995.404
624.946	25133.894
625.074	25016.532
625.202	25014.872
625.330	25012.681
625.458	25096.021
625.587	24995.085
625.715	25002.936
625.843	25166.426
625.971	25097.191
626.099	25034.489
626.227	25049.851
626.355	25036.979
626.483	25076.723
626.612	25023.340
626.740	25103.745
626.868	25189.617
626.996	25216.638
627.124	25144.191
627.252	25182.511
627.380	25311.170
627.508	25256.128
627.637	25239.723
627.765	25218.255
627.893	25283.553
628.021	25365.000
628.149	25612.745
628.277	25701.979
628.405	25696.043
628.533	25489.085
628.662	25536.553
628.790	25547.021
628.918	25575.894
629.046	25599.702
629.174	25801.915
629.302	26092.340
629.430	25928.872
629.558	25852.979
629.687	25939.000
629.815	25944.043
629.943	26041.681
630.071	26056.085
630.199	26134.979
630.327	26148.723
630.455	26265.064
630.583	26296.340
630.712	26307.319
630.840	26368.511
630.968	26375.511
631.096	26371.149
631.224	26442.426
631.352	26432.298
631.480	26476.745
631.608	26565.106
631.737	26695.723
631.865	26715.064
631.993	26648.809
632.121	26727.638
632.249	26745.511
632.377	26648.255
632.505	26737.681
632.633	26602.851
632.762	26678.340
632.890	26753.277
633.018	26660.681
633.146	26828.745
633.274	26686.915
633.402	26703.957
633.530	26640.149
633.658	26827.170
633.787	26618.000
633.915	26671.723
634.043	26674.255
634.171	26644.851
634.299	26706.149
634.427	26606.064
634.555	26662.426
634.683	26624.170
634.812	26561.745
634.940	26616.191
635.068	26493.681
635.196	26438.021
635.324	26420.021
635.452	26447.234
635.580	26441.213
635.708	26391.064
635.837	26449.383
635.965	26344.681
636.093	26267.426
636.221	26267.213
636.349	26310.936
636.477	26251.362
636.605	26356.596
636.733	26112.021
636.862	26118.766
636.990	26073.106
637.118	26113.894
637.246	26085.851
637.374	26106.894
637.502	26062.064
637.630	26066.277
637.758	26008.851
637.887	25993.596
638.015	25895.298
638.143	25950.021
638.271	25876.255
638.399	25851.617
638.527	25905.149
638.655	25873.340
638.783	25956.617
638.912	25882.213
639.040	25862.255
639.168	25901.787
639.296	25780.596
639.424	25998.319
639.552	25846.383
639.680	25950.702
639.808	25889.745
639.937	25797.298
640.065	25791.745
640.193	25898.064
640.321	25782.468
640.449	25904.617
640.577	25891.468
640.705	25868.277
640.833	25910.745
640.962	25809.213
641.090	25802.468
641.218	25850.553
641.346	25905.255
641.474	25927.936
641.602	25913.106
641.730	25953.191
641.858	25984.489
641.987	26021.851
642.115	26034.447
642.243	26088.085
642.371	26104.468
642.499	26092.745
642.627	26095.511
642.755	26201.021
642.883	26261.319
643.012	26169.170
643.140	26225.489
643.268	26266.936
643.396	26309.128
643.524	26364.021
643.652	26287.532
643.780	26213.447
643.908	26370.830
644.037	26430.936
644.165	26358.404
644.293	26402.723
644.421	26439.383
644.549	26370.766
644.677	26419.830
644.805	26446.766
644.933	26331.957
645.062	26452.979
645.190	26411.723
645.318	26530.383
645.446	26416.511
645.574	26462.085
645.702	26460.809
645.830	26662.277
645.958	26421.936
646.087	26558.191
646.215	26336.085
646.343	26648.957
646.471	26392.064
646.599	26455.809
646.727	26381.213
646.855	26364.000
646.983	26455.745
647.112	26409.383
647.240	26489.234
647.368	26358.064
647.496	26334.489
647.624	26319.617
647.752	26253.106
647.880	26230.468
648.008	26174.915
648.137	26265.426
648.265	26279.362
648.393	26143.702
648.521	26236.596
648.649	26204.085
648.777	26184.213
648.905	26124.234
649.033	26063.234
649.162	25993.660
649.290	26030.447
649.418	25975.809
649.546	25988.511
649.674	25972.149
649.802	25845.489
649.930	25972.426
650.058	25826.936
650.187	25840.894
650.315	25777.979
650.443	25784.043
650.571	25683.234
650.699	25701.489
650.827	25685.596
650.955	25694.149
651.083	25691.702
651.212	25671.851
651.340	25585.468
651.468	25559.277
651.596	25498.660
651.724	25544.447
651.852	25549.362
651.980	25458.085
652.108	25473.532
652.237	25499.553
652.365	25462.660
652.493	25366.894
652.621	25382.851
652.749	25389.915
652.877	25316.638
653.005	25248.894
653.133	25209.872
653.262	25330.489
653.390	25220.468
653.518	25289.255
653.646	25289.745
653.774	25312.532
653.902	25123.809
654.030	25160.617
654.158	25131.447
654.287	25116.043
654.415	25060.830
654.543	25082.489
654.671	25030.915
654.799	25094.362
654.927	24987.851
655.055	24947.149
655.183	24974.255
655.312	24948.404
655.440	24926.979
655.568	24817.745
655.696	24878.766
655.824	24956.383
655.952	24785.638
656.080	24699.574
656.208	24841.851
656.337	24643.489
656.465	24745.000
656.593	24665.213
656.721	24531.298
656.849	24623.021
656.977	24441.809
657.105	24446.234
657.233	24389.787
657.362	24360.277
657.490	24297.979
657.618	24264.128
657.746	24192.383
657.874	24218.340
658.002	24092.574
658.130	24130.383
658.258	24017.638
658.387	24019.085
658.515	23954.277
658.643	23980.404
658.771	23912.511
658.899	23926.043
659.027	23837.085
659.155	23829.277
659.283	23914.894
659.412	23756.617
659.540	23714.872
659.668	23619.170
659.796	23638.234
659.924	23576.234
660.052	23544.872
660.180	23439.149
660.308	23381.362
660.437	23473.319
660.565	23411.723
660.693	23344.617
660.821	23296.660
660.949	23271.574
661.077	23270.830
661.205	23292.383
661.333	23173.638
661.462	23257.319
661.590	23105.702
661.718	23252.553
661.846	23153.489
661.974	23229.213
662.102	23071.574
662.230	23118.809
662.358	23006.830
662.487	23047.979
662.615	22953.894
662.743	22968.660
662.871	22890.532
662.999	22872.106
663.127	22864.277
663.255	22934.723
663.383	22876.723
663.512	22842.340
663.640	22871.255
663.768	22854.404
663.896	22888.085
664.024	22918.340
664.152	22888.404
664.280	22969.702
664.408	22908.745
664.537	22894.660
664.665	22909.617
664.793	22802.830
664.921	22806.638
665.049	22861.723
665.177	22821.213
665.305	22929.766
665.433	22826.702
665.562	22746.170
665.690	22826.340
665.818	22997.979
665.946	22813.681
666.074	22758.468
666.202	22821.830
666.330	22847.979
666.458	22824.638
666.587	22742.979
666.715	22847.213
666.843	22863.106
666.971	22728.787
667.099	22725.404
667.227	22712.723
667.355	22705.809
667.483	22662.426
667.612	22701.447
667.740	22694.298
667.868	22734.085
667.996	22702.404
668.124	22639.043
668.252	22650.617
668.380	22612.979
668.508	22557.404
668.637	22567.957
668.765	22523.681
668.893	22557.319
669.021	22477.553
669.149	22448.000
669.277	22484.170
669.405	22340.170
669.533	22440.532
669.662	22570.957
669.790	22394.872
669.918	22315.340
670.046	22231.489
670.174	22301.043
670.302	22192.979
670.430	22122.000
670.558	22092.532
670.687	22045.340
670.815	22107.489
670.943	21928.702
671.071	21864.426
671.199	21843.702
671.327	21763.979
671.455	21756.447
671.583	21684.787
671.712	21812.574
671.840	21698.085
671.968	21538.170
672.096	21539.979
672.224	21513.915
672.352	21545.191
672.480	21333.383
672.608	21321.319
672.737	21185.021
672.865	21364.745
672.993	21106.106
673.121	21037.638
673.249	20916.106
673.377	20883.170
673.505	20878.128
673.633	20780.085
673.762	20735.723
673.890	20635.553
674.018	20878.043
674.146	20571.191
674.274	20503.787
674.402	20683.426
674.530	20458.809
674.658	20289.957
674.787	20240.319
674.915	20202.787
675.043	20299.872
675.171	20135.511
675.299	20055.043
675.427	20021.213
675.555	19919.702
675.683	19883.213
675.812	19764.319
675.940	19847.745
676.068	19734.596
676.196	19723.511
676.324	19608.234
676.452	19577.468
676.580	19479.362
676.708	19412.362
676.837	19436.681
676.965	19337.511
677.093	19298.532
677.221	19238.511
677.349	19162.532
677.477	19201.362
677.605	19057.319
677.733	19075.298
677.862	18884.383
677.990	18871.489
678.118	18858.915
678.246	18804.596
678.374	18701.383
678.502	18612.894
678.630	18640.957
678.758	18636.617
678.887	18508.702
679.015	18485.596
679.143	18458.000
679.271	18410.404
679.399	18418.468
679.527	18311.064
679.655	18262.532
679.783	18296.234
679.912	18282.745
680.040	18159.213
680.168	18110.957
680.296	18133.660
680.424	17999.468
680.552	18057.213
680.680	18029.298
680.808	17999.766
680.937	17830.234
681.065	17845.872
681.193	17811.170
681.321	17866.596
681.449	17782.383
681.577	17774.723
681.705	17665.191
681.833	17672.681
681.962	17591.787
682.090	17805.021
682.218	17635.851
682.346	17642.957
682.474	17597.766
682.602	17563.723
682.730	17549.191
682.858	17482.426
682.987	17515.745
683.115	17548.979
683.243	17425.851
683.371	17412.170
683.499	17447.511
683.627	17393.660
683.755	17409.596
683.883	17418.745
684.012	17308.660
684.140	17255.149
684.268	17222.064
684.396	17218.936
684.524	17290.617
684.652	17267.617
684.780	17213.043
684.908	17229.426
685.037	17065.553
685.165	17025.128
685.293	17006.660
685.421	17150.000
685.549	17025.234
685.677	16976.043
685.805	17070.745
685.933	17039.319
686.062	16920.021
686.190	16867.851
686.318	16841.723
686.446	16798.660
686.574	16773.043
686.702	16840.149
686.830	16789.234
686.958	16647.745
687.087	16654.872
687.215	16692.447
687.343	16534.723
687.471	16530.638
687.599	16442.489
687.727	16664.596
687.855	16476.043
687.983	16561.638
688.112	16510.000
688.240	16413.383
688.368	16353.085
688.496	16293.532
688.624	16332.553
688.752	16200.277
688.880	16244.468
689.008	16189.851
689.137	16139.170
689.265	16090.319
689.393	16038.404
689.521	15997.787
689.649	15972.085
689.777	15941.064
689.905	15841.128
690.033	15816.681
690.162	15809.043
690.290	15723.766
690.418	15684.319
690.546	15746.277
690.674	15696.617
690.802	15565.766
690.930	15535.404
691.058	15519.489
691.187	15432.021
691.315	15362.638
691.443	15434.234
691.571	15323.979
691.699	15290.043
691.827	15312.532
691.955	15163.574
692.083	15136.745
692.212	15253.191
692.340	15104.170
692.468	15073.319
692.596	15037.851
692.724	15083.298
692.852	14868.745
692.980	14921.340
693.108	14837.872
693.237	14808.170
693.365	14725.702
693.493	14607.894
693.621	14647.787
693.749	14546.830
693.877	14533.404
694.005	14585.468
694.133	14524.340
694.262	14464.298
694.390	14353.404
694.518	14388.723
694.646	14336.404
694.774	14283.234
694.902	14333.149
695.030	14253.085
695.158	14112.574
695.287	14145.170
695.415	14056.319
695.543	14034.170
695.671	14121.404
695.799	13991.043
695.927	13921.872
696.055	13870.043
696.183	13842.511
696.312	13812.404
696.440	13932.255
696.568	13778.170
696.696	13780.660
696.824	13627.532
696.952	13611.064
697.080	13607.702
697.208	13477.702
697.337	13528.511
697.465	13460.851
697.593	13367.426
697.721	13344.766
697.849	13366.830
697.977	13267.149
698.105	13280.723
698.233	13229.809
698.362	13169.021
698.490	13131.809
698.618	13081.000
698.746	13156.128
698.874	13073.553
699.002	13203.596
699.130	12946.957
699.258	12946.766
699.387	12805.936
699.515	12877.809
699.643	12786.638
699.771	12733.426
699.899	12657.872
700.027	12647.702
700.155	12546.553
700.283	12592.340
700.412	12518.426
700.540	12465.596
700.668	12407.723
700.796	12386.277
700.924	12312.277
701.052	12283.213
701.180	12345.128
701.308	12204.830
701.437	12108.426
701.565	12008.553
701.693	11953.234
701.821	11978.489
701.949	11937.234
702.077	11889.362
702.205	11805.617
702.333	11762.213
702.462	11715.617
702.590	11707.702
702.718	11621.489
702.846	11519.362
702.974	11476.170
703.102	11450.638
703.230	11472.915
703.358	11353.213
703.487	11271.085
703.615	11425.191
703.743	11228.702
703.871	11126.064
703.999	11142.128
704.127	11156.170
704.255	10947.426
704.383	11088.319
704.512	10945.681
704.640	10870.660
704.768	10726.574
704.896	10814.553
705.024	10691.043
705.152	10771.277
705.280	10605.383
705.408	10560.553
705.537	10495.532
705.665	10392.170
705.793	10409.021
705.921	10278.043
706.049	10340.021
706.177	10213.553
706.305	10220.106
706.433	10214.745
706.562	10090.404
706.690	10001.149
706.818	9971.809
706.946	10146.234
707.074	9925.979
707.202	9871.702
707.330	9910.362
707.458	9807.574
707.587	9750.660
707.715	9650.532
707.843	9684.979
707.971	9700.979
708.099	9687.532
708.227	9537.532
708.355	9496.426
708.483	9427.213
708.612	9421.532
708.740	9427.787
708.868	9419.362
708.996	9324.681
709.124	9322.362
709.252	9250.660
709.380	9187.915
709.508	9180.362
709.637	9122.234
709.765	9073.106
709.893	9073.638
710.021	9075.362
710.149	8982.745
710.277	8994.128
710.405	8891.000
710.533	8875.234
710.662	8885.404
710.790	8795.319
710.918	8824.255
711.046	8783.830
711.174	8793.191
711.302	8765.191
711.430	8777.532
711.558	8620.021
711.687	8618.277
711.815	8630.979
711.943	8590.681
712.071	8574.021
712.199	8601.319
712.327	8536.936
712.455	8475.851
712.583	8478.362
712.712	8461.872
712.840	8380.106
712.968	8360.468
713.096	8403.234
713.224	8253.021
713.352	8291.553
713.480	8243.340
713.608	8258.766
713.737	8199.468
713.865	8220.021
713.993	8253.915
714.121	8158.894
714.249	8102.745
714.377	8191.745
714.505	8090.596
714.633	8196.617
714.762	8085.426
714.890	8020.745
715.018	7988.021
715.146	8016.085
715.274	8012.809
715.402	8087.745
715.530	7951.064
715.658	7872.936
715.787	7797.213
715.915	8038.149
716.043	7785.787
716.171	7857.681
716.299	7847.574
716.427	7776.936
716.555	7724.894
716.683	7675.851
716.812	7681.170
716.940	7716.532
717.068	7585.489
717.196	7791.702
717.324	7679.894
717.452	7567.149
717.580	7506.979
717.708	7507.936
717.837	7533.851
717.965	7443.830
718.093	7440.957
718.221	7339.766
718.349	7416.191
718.477	7354.340
718.605	7383.511
718.733	7261.255
718.862	7278.362
718.990	7228.745
719.118	7227.532
719.246	7149.723
719.374	7236.745
719.502	7147.362
719.630	7227.957
719.758	7063.149
719.887	7055.170
720.015	7207.404
720.143	6943.745
720.271	6931.553
720.399	6965.872
720.527	6942.638
720.655	6918.915
720.783	6991.213
720.912	6771.319
721.040	6803.936
721.168	6723.745
721.296	6800.723
721.424	6671.170
721.552	6632.106
721.680	6614.489
721.808	6644.085
721.937	6579.787
722.065	6659.255
722.193	6649.298
722.321	6493.809
722.449	6452.191
722.577	6428.404
722.705	6380.404
722.833	6409.851
722.962	6363.021
723.090	6278.681
723.218	6241.723
723.346	6278.468
723.474	6212.340
723.602	6335.957
723.730	6230.766
723.858	6297.745
723.987	6153.915
724.115	6187.979
724.243	6078.064
724.371	6095.319
724.499	6074.638
724.627	5941.553
724.755	5933.723
724.883	5920.064
725.012	5868.043
725.140	5917.383
725.268	5846.426
725.396	5736.085
725.524	5763.340
725.652	5781.660
725.780	5724.511
725.908	5767.021
726.037	5848.383
726.165	5638.319
726.293	5595.106
726.421	5567.681
726.549	5583.574
726.677	5520.936
726.805	5518.638
726.933	5447.277
727.062	5486.617
727.190	5462.404
727.318	5389.319
727.446	5394.447
727.574	5364.021
727.702	5471.149
727.830	5303.362
727.958	5326.404
728.087	5288.872
728.215	5365.234
728.343	5349.830
728.471	5217.234
728.599	5190.532
728.727	5247.170
728.855	5122.340
728.983	5143.255
729.112	5144.894
729.240	5100.064
729.368	5101.894
729.496	5069.362
729.624	5078.191
729.752	5029.128
729.880	5037.596
730.008	4981.447
730.137	4928.298
730.265	5120.426
730.393	4875.064
730.521	4990.064
730.649	4911.957
730.777	4875.596
730.905	4828.043
731.033	4901.298
731.162	5021.723
731.290	4924.851
731.418	4995.447
731.546	4938.404
731.674	4788.851
731.802	4829.936
731.930	4703.106
732.058	4665.702
732.187	4661.383
732.315	4655.319
732.443	4600.979
732.571	4754.277
732.699	4685.404
732.827	4619.298
732.955	4569.362
733.083	4504.021
733.212	4588.255
733.340	4524.574
733.468	4576.511
733.596	4441.745
733.724	4474.298
733.852	4399.681
733.980	4433.766
734.108	4596.106
734.237	4512.021
734.365	4493.723
734.493	4398.383
734.621	4323.979
734.749	4376.489
734.877	4354.191
735.005	4325.809
735.133	4349.617
735.262	4376.404
735.390	4256.234
735.518	4381.617
735.646	4169.128
735.774	4211.085
735.902	4208.957
736.030	4167.723
736.158	4179.745
736.287	4090.447
736.415	4275.043
736.543	4122.106
736.671	4083.574
736.799	4073.681
736.927	4150.574
737.055	4080.894
737.183	4143.766
737.312	4101.872
737.440	4037.681
737.568	4027.638
737.696	3985.383
737.824	4050.787
737.952	3995.489
738.080	3954.085
738.208	3930.702
738.337	3943.532
738.465	3978.468
738.593	3877.723
738.721	3841.170
738.849	3854.319
738.977	3857.277
739.105	3844.468
739.233	3782.234
739.362	3797.872
739.490	3712.787
739.618	3702.787
739.746	3705.277
739.874	3897.383
740.002	3793.000
740.130	3747.319
740.258	3642.106
740.387	3602.128
740.515	3768.489
740.643	3561.234
740.771	3620.383
740.899	3615.915
741.027	3625.979
741.155	3664.766
741.283	3499.106
741.412	3486.383
741.540	3502.638
741.668	3576.596
741.796	3591.681
741.924	3517.979
742.052	3445.319
742.180	3571.149
742.308	3403.681
742.437	3400.574
742.565	3523.085
742.693	3540.319
742.821	3456.574
742.949	3418.277
743.077	3335.872
743.205	3311.170
743.333	3316.021
743.462	3327.489
743.590	3325.553
743.718	3245.894
743.846	3247.830
743.974	3245.532
744.102	3382.255
744.230	3244.617
744.358	3192.532
744.487	3174.447
744.615	3192.766
744.743	3146.830
744.871	3086.319
744.999	3213.936
745.127	3138.723
745.255	3077.362
745.383	3108.787
745.512	3092.149
745.640	2981.660
745.768	3020.532
745.896	3044.277
746.024	3006.319
746.152	3011.660
746.280	2989.149
746.408	3017.894
746.537	3053.277
746.665	2942.064
746.793	2975.149
746.921	2860.574
747.049	3090.362
747.177	2966.830
747.305	2923.149
747.433	2933.745
747.562	2840.936
747.690	2900.915
747.818	2907.468
747.946	2801.340
748.074	2880.872
748.202	2830.596
748.330	2889.106
748.458	2765.000
748.587	2739.979
748.715	2720.979
748.843	2775.660
748.971	2743.277
749.099	2724.489
749.227	2746.213
749.355	2652.957
749.483	2658.638
749.612	2702.128
749.740	2738.128
749.868	2714.340
749.996	2670.426
750.124	2609.596
750.252	2629.362
750.380	2625.085
750.508	2616.191
750.637	2640.298
750.765	2675.426
750.893	2578.128
751.021	2603.128
751.149	2730.511
751.277	2639.170
751.405	2636.872
751.533	2676.574
751.662	2640.170
751.790	2635.468
751.918	2611.383
752.046	2547.128
752.174	2514.064
752.302	2670.638
752.430	2549.702
752.558	2484.617
752.687	2489.319
752.815	2505.723
752.943	2529.511
753.071	2505.702
753.199	2463.489
753.327	2504.532
753.455	2497.319
753.583	2451.809
753.712	2469.298
753.840	2432.532
753.968	2418.128
754.096	2408.638
754.224	2394.745
754.352	2384.447
754.480	2381.021
754.608	2375.298
754.737	2367.234
754.865	2400.277
754.993	2334.553
755.121	2339.021
755.249	2394.766
755.377	2322.340
755.505	2303.660
755.633	2321.149
755.762	2279.383
755.890	2341.021
756.018	2303.234
756.146	2252.447
756.274	2232.787
756.402	2235.809
756.530	2231.936
756.658	2225.532
756.787	2211.894
756.915	2155.809
757.043	2172.979
757.171	2154.191
757.299	2161.298
757.427	2130.915
757.555	2143.213
757.683	2149.021
757.812	2104.064
757.940	2083.553
758.068	2061.298
758.196	2058.489
758.324	2048.638
758.452	2168.638
758.580	2031.936
758.708	2030.362
758.837	2027.787
758.965	2085.617
759.093	1969.702
759.221	1970.021
759.349	1963.362
759.477	1962.532
759.605	1929.830
759.733	1911.170
759.862	1923.340
759.990	1903.000
760.118	1890.043
760.246	1858.830
760.374	1874.511
760.502	1879.574
760.630	1860.553
760.758	1834.340
760.887	1789.766
761.015	1827.426
761.143	1797.170
761.271	1795.149
761.399	1760.319
761.527	1784.596
761.655	1767.787
761.783	1752.681
761.912	1744.319
762.040	1709.149
762.168	1731.851
762.296	1687.340
762.424	1690.809
762.552	1701.383
762.680	1746.596
762.808	1651.404
762.937	1660.149
763.065	1700.468
763.193	1678.000
763.321	1648.234
763.449	1611.064
763.577	1613.213
763.705	1601.404
763.833	1683.170
763.962	1572.085
764.090	1561.213
764.218	1580.170
764.346	1559.957
764.474	1523.085
764.602	1528.128
764.730	1511.298
764.858	1541.702
764.987	1514.319
765.115	1543.894
765.243	1473.149
765.371	1462.723
765.499	1467.426
765.627	1467.404
765.755	1457.511
765.883	1456.596
766.012	1448.681
766.140	1416.319
766.268	1414.681
766.396	1393.340
766.524	1410.894
766.652	1408.872
766.780	1392.553
766.908	1390.191
767.037	1377.766
767.165	1387.830
767.293	1425.255
767.421	1352.936
767.549	1349.000
767.677	1349.596
767.805	1325.277
767.933	1352.532
768.062	1351.851
768.190	1306.128
768.318	1310.064
768.446	1319.830
768.574	1319.043
768.702	1315.936
768.830	1280.021
768.958	1288.277
769.087	1257.021
769.215	1266.149
769.343	1258.957
769.471	1242.426
769.599	1299.362
769.727	1278.043
769.855	1251.085
769.983	1223.043
770.112	1210.234
770.240	1201.532
770.368	1231.043
770.496	1210.638
770.624	1200.426
770.752	1207.170
770.880	1236.064
771.008	1200.234
771.137	1184.404
771.265	1225.745
771.393	1207.000
771.521	1195.574
771.649	1160.170
771.777	1162.277
771.905	1172.000
772.033	1165.340
772.162	1181.787
772.290	1156.298
772.418	1204.319
772.546	1153.638
772.674	1142.830
772.802	1160.106
772.930	1182.128
773.058	1112.404
773.187	1149.638
773.315	1128.957
773.443	1119.723
773.571	1094.787
773.699	1117.298
773.827	1094.383
773.955	1131.298
774.083	1099.617
774.212	1090.277
774.340	1111.128
774.468	1087.170
774.596	1086.404
774.724	1077.362
774.852	1076.894
774.980	1058.702
775.108	1063.809
775.237	1058.085
775.365	1051.234
775.493	1051.553
775.621	1051.489
775.749	1041.383
775.877	1035.617
776.005	1032.830
776.133	1055.426
776.262	1034.766
776.390	1005.596
776.518	1051.043
776.646	1001.723
776.774	1033.979
776.902	995.362
777.030	993.021
777.158	1004.000
777.287	1003.745
777.415	982.106
777.543	977.426
777.671	963.319
777.799	956.787
777.927	960.468
778.055	973.085
778.183	970.979
778.312	937.170
778.440	941.298
778.568	958.766
778.696	938.085
778.824	949.319
778.952	943.936
779.080	921.553
779.208	954.660
779.337	937.915
779.465	922.617
779.593	912.426
779.721	930.021
779.849	921.085
779.977	898.957
780.105	876.809
780.233	923.681
780.362	902.915
780.490	924.617
780.618	888.447
780.746	884.936
780.874	861.234
781.002	876.979
781.130	862.234
781.258	835.787
781.387	865.191
781.515	879.085
781.643	852.447
781.771	879.574
781.899	841.255
782.027	890.574
782.155	845.936
782.283	844.319
782.412	820.426
782.540	825.404
782.668	844.106
782.796	805.106
782.924	837.723
783.052	800.553
783.180	843.617
783.308	811.234
783.437	806.702
783.565	811.085
783.693	791.936
783.821	792.532
783.949	798.787
784.077	809.617
784.205	790.447
784.333	814.277
784.462	769.426
784.590	769.830
784.718	782.362
784.846	753.851
784.974	777.681
785.102	813.149
785.230	758.638
785.358	805.574
785.487	751.468
785.615	748.915
785.743	739.511
785.871	740.234
785.999	740.234
786.127	724.851
786.255	746.213
786.383	758.043
786.512	751.447
786.640	731.085
786.768	743.128
786.896	713.128
787.024	719.085
787.152	706.128
787.280	708.638
787.408	701.830
787.537	730.234
787.665	714.617
787.793	721.064
787.921	708.617
788.049	707.660
788.177	684.638
788.305	680.319
788.433	707.957
788.562	671.809
788.690	673.809
788.818	679.511
788.946	682.468
789.074	664.021
789.202	686.191
789.330	683.723
789.458	663.383
789.587	722.532
789.715	675.170
789.843	655.489
789.971	658.404
790.099	644.085
790.227	660.383
790.355	642.468
790.483	666.936
790.612	642.021
790.740	642.702
790.868	666.511
790.996	641.787
791.124	634.383
791.252	640.809
791.380	641.532
791.508	631.277
791.637	625.596
791.765	617.064
791.893	617.638
792.021	624.064
792.149	608.660
792.277	625.596
792.405	600.957
792.533	630.766
792.662	585.128
792.790	593.894
792.918	615.234
793.046	602.979
793.174	619.830
793.302	593.809
793.430	601.362
793.558	576.532
793.687	591.745
793.815	580.532
793.943	609.128
794.071	605.489
794.199	580.702
794.327	585.596
794.455	654.277
794.583	667.319
794.712	572.064
794.840	563.383
794.968	579.660
795.096	591.255
795.224	539.596
795.352	556.915
795.480	587.830
795.608	568.277
795.737	558.149
795.865	554.617
795.993	541.872
796.121	521.255
796.249	542.617
796.377	552.872
796.505	541.660
796.633	528.447
796.762	527.000
796.890	535.723
797.018	549.489
797.146	515.106
797.274	513.468
797.402	517.596
797.530	525.766
797.658	524.574
797.787	560.213
797.915	516.085
798.043	541.000
798.171	495.745
798.299	518.745
798.427	496.532
798.555	519.511
798.683	486.851
798.812	512.702
798.940	560.000
799.068	502.021
799.196	531.064
799.324	490.745
799.452	498.191
799.580	476.851
799.708	534.745
799.837	475.404
799.965	484.021
800.093	507.085
800.221	463.468
800.349	477.681
800.477	470.660
800.605	479.383
800.733	494.426
800.862	477.596
800.990	512.936
801.118	455.809
801.246	459.638
801.374	473.851
801.502	459.255
801.630	442.957
801.758	466.532
801.887	468.468
802.015	445.255
802.143	447.106
802.271	475.936
802.399	444.553
802.527	441.851
802.655	476.106
802.783	495.787
802.912	446.787
803.040	439.426
803.168	428.489
803.296	418.830
803.424	445.106
803.552	429.404
803.680	438.511
803.808	443.766
803.937	427.106
804.065	424.021
804.193	426.596
804.321	467.851
804.449	410.915
804.577	424.532
804.705	429.596
804.833	451.936
804.962	412.319
805.090	410.298
805.218	432.170
805.346	420.170
805.474	422.511
805.602	438.021
805.730	415.851
805.858	399.404
805.987	418.660
806.115	413.787
806.243	414.255
806.371	436.170
806.499	511.213
806.627	534.404
806.755	503.957
806.883	419.362
807.012	397.277
807.140	425.085
807.268	412.298
807.396	418.277
807.524	385.851
807.652	400.489
807.780	455.149
807.908	377.638
808.037	434.723
808.165	418.660
808.293	400.106
808.421	440.426
808.549	386.064
808.677	390.170
808.805	430.277
808.933	393.511
809.062	404.532
809.190	439.383
809.318	384.426
809.446	381.851
809.574	435.617
809.702	373.957
809.830	385.766
809.958	387.872
810.087	382.723
810.215	393.149
810.343	389.064
810.471	388.447
810.599	366.532
810.727	368.170
810.855	359.468
810.983	364.043
811.112	380.660
811.240	372.277
811.368	389.340
811.496	411.723
811.624	370.787
811.752	363.681
811.880	373.128
812.008	348.511
812.137	378.681
812.265	348.723
812.393	375.085
812.521	378.106
812.649	364.064
812.777	348.362
812.905	392.511
813.033	340.723
813.162	348.234
813.290	346.319
813.418	370.000
813.546	344.234
813.674	350.830
813.802	364.383
813.930	337.638
814.058	343.596
814.187	351.489
814.315	348.809
814.443	360.106
814.571	361.596
814.699	367.745
814.827	347.106
814.955	337.064
815.083	366.447
815.212	364.128
815.340	365.383
815.468	332.638
815.596	343.319
815.724	350.340
815.852	333.255
815.980	340.574
816.108	335.872
816.237	331.362
816.365	344.043
816.493	350.043
816.621	328.447
816.749	338.383
816.877	343.426
817.005	352.957
817.133	344.702
817.262	320.043
817.390	331.787
817.518	323.000
817.646	341.106
817.774	326.404
817.902	325.277
818.030	326.021
818.158	362.404
818.287	351.404
818.415	313.319
818.543	328.255
818.671	343.936
818.799	319.809
818.927	331.021
819.055	333.106
819.183	316.426
819.312	327.511
819.440	310.000
819.568	315.255
819.696	322.511
819.824	341.638
819.952	312.043
820.080	325.574
820.208	318.213
820.337	309.596
820.465	347.191
820.593	315.362
820.721	316.340
820.849	321.468
820.977	309.426
821.105	325.660
821.233	297.596
821.362	334.426
821.490	292.723
821.618	303.574
821.746	302.213
821.874	312.809
822.002	303.191
822.130	307.766
822.258	292.128
822.387	295.447
822.515	323.362
822.643	321.191
822.771	309.298
822.899	302.064
823.027	342.468
823.155	290.362
823.283	288.745
823.412	299.340
823.540	299.170
823.668	351.979
823.796	300.787
823.924	323.383
824.052	332.681
824.180	304.830
824.308	289.787
824.437	291.128
824.565	287.085
824.693	316.489
824.821	304.723
824.949	296.319
825.077	296.191
825.205	328.638
825.333	309.128
825.462	327.851
825.590	292.277
825.718	314.085
825.846	291.766
825.974	279.979
826.102	285.404
826.230	286.170
826.358	289.383
826.487	281.809
826.615	329.319
826.743	284.894
826.871	304.574
826.999	334.064
827.127	292.383
827.255	295.447
827.383	280.447
827.512	309.745
827.640	278.723
827.768	279.511
827.896	288.766
828.024	281.234
828.152	284.830
828.280	286.957
828.408	277.915
828.537	282.681
828.665	288.894
828.793	288.660
828.921	268.660
829.049	299.426
829.177	276.468
829.305	276.830
829.433	285.043
829.562	295.915
829.690	265.915
829.818	304.511
829.946	275.277
830.074	289.809
830.202	300.532
830.330	301.383
830.458	321.213
830.587	276.277
830.715	284.511
830.843	277.468
830.971	290.234
831.099	310.660
831.227	270.915
831.355	277.617
831.483	288.489
831.612	307.340
831.740	274.894
831.868	284.851
831.996	267.553
832.124	272.277
832.252	260.404
832.380	287.532
832.508	331.617
832.637	276.660
832.765	275.213
832.893	307.511
833.021	263.298
833.149	265.213
833.277	273.702
833.405	264.277
833.533	265.170
833.662	274.702
833.790	265.766
833.918	271.404
834.046	308.872
834.174	276.936
834.302	269.298
834.430	261.979
834.558	276.426
834.687	283.872
834.815	258.830
834.943	273.340
835.071	266.809
835.199	271.021
835.327	287.638
835.455	266.468
835.583	295.064
835.712	256.085
835.840	262.128
835.968	267.489
836.096	314.702
836.224	284.106
836.352	249.745
836.480	281.021
836.608	276.511
836.737	263.489
836.865	255.957
836.993	269.894
837.121	268.574
837.249	258.404
837.377	279.596
837.505	275.021
837.633	264.638
837.762	262.128
837.890	294.213
838.018	296.149
838.146	298.021
838.274	275.617
838.402	284.681
838.530	260.340
838.658	245.277
838.787	271.000
838.915	258.766
839.043	244.234
839.171	284.979
839.299	243.915
839.427	263.511
839.555	267.149
839.683	276.106
839.812	289.149
839.940	251.319
840.068	268.702
840.196	274.064
840.324	258.277
840.452	262.468
840.580	294.745
840.708	264.255
840.837	290.468
840.965	251.340
841.093	257.106
841.221	254.638
841.349	258.936
841.477	270.340
841.605	269.745
841.733	251.979
841.862	264.936
841.990	315.298
842.118	236.426
842.246	257.894
842.374	253.191
842.502	234.213
842.630	265.787
842.758	283.128
842.887	246.617
843.015	256.872
843.143	274.383
843.271	257.489
843.399	296.213
843.527	264.404
843.655	247.553
843.783	250.681
843.912	243.383
844.040	278.340
844.168	246.532
844.296	245.745
844.424	241.553
844.552	267.723
844.680	262.915
844.808	272.894
844.937	247.766
845.065	257.170
845.193	270.021
845.321	257.489
845.449	252.234
845.577	247.553
845.705	245.511
845.833	243.000
845.962	257.936
846.090	238.319
846.218	251.170
846.346	262.149
846.474	266.319
846.602	251.957
846.730	281.191
846.858	262.660
846.987	250.021
847.115	242.106
847.243	275.362
847.371	265.043
847.499	262.106
847.627	249.830
847.755	243.957
847.883	257.553
848.012	255.681
848.140	250.638
848.268	265.064
848.396	236.468
848.524	264.021
848.652	225.404
848.780	250.787
848.908	263.000
849.037	243.447
849.165	256.979
849.293	262.723
849.421	268.872
849.549	249.702
849.677	250.894
849.805	255.362
849.933	253.787
850.062	249.915
850.190	247.553
850.318	248.617
850.446	242.787
850.574	239.234
850.702	246.213
850.830	249.638
850.958	263.213
851.087	230.000
851.215	259.319
851.343	239.574
851.471	240.085
851.599	249.298
851.727	249.404
851.855	296.660
851.983	259.872
852.112	240.936
852.240	241.319
852.368	251.170
852.496	242.128
852.624	244.021
852.752	246.149
852.880	229.170
853.008	250.489
853.137	254.383
853.265	257.766
853.393	247.426
853.521	257.532
853.649	248.532
853.777	238.468
853.905	255.106
854.033	244.298
854.162	305.511
854.290	247.617
854.418	228.766
854.546	239.234
854.674	346.404
854.802	245.340
854.930	235.447
855.058	223.383
855.187	229.511
855.315	264.064
855.443	219.681
855.571	232.553
855.699	237.745
855.827	242.064
855.955	241.383
856.083	237.319
856.212	251.809
856.340	235.574
856.468	284.809
856.596	258.915
856.724	245.638
856.852	240.106
856.980	235.532
857.108	254.745
857.237	230.894
857.365	262.617
857.493	239.362
857.621	229.617
857.749	243.277
857.877	256.936
858.005	257.489
858.133	242.957
858.262	241.532
858.390	234.872
858.518	225.319
858.646	230.191
858.774	236.957
858.902	223.723
859.030	232.894
859.158	248.660
859.287	251.319
859.415	270.149
859.543	223.915
859.671	229.617
859.799	258.340
859.927	240.426
860.055	235.489
860.183	245.085
860.312	237.277
860.440	242.596
860.568	237.511
860.696	224.064
860.824	300.872
860.952	281.468
861.080	240.298
861.208	246.596
861.337	239.702
861.465	268.660
861.593	264.936
861.721	230.979
861.849	234.702
861.977	222.021
862.105	244.681
862.233	266.404
862.362	245.234
862.490	262.723
862.618	223.723
862.746	236.340
862.874	235.319
863.002	224.383
863.130	263.489
863.258	236.894
863.387	244.957
863.515	254.000
863.643	244.064
863.771	308.660
863.899	237.362
864.027	229.702
864.155	230.894
864.283	255.064
864.412	232.426
864.540	227.213
864.668	226.170
864.796	232.511
864.924	243.851
865.052	239.936
865.180	226.362
865.308	212.809
865.437	237.915
865.565	242.106
865.693	265.553
865.821	245.106
865.949	263.149
866.077	236.426
866.205	247.787
866.333	253.043
866.462	231.106
866.590	237.638
866.718	247.915
866.846	232.447
866.974	242.404
867.102	250.915
867.230	270.170
867.358	234.596
867.487	224.915
867.615	252.872
867.743	242.447
867.871	245.298
867.999	242.617
868.127	237.383
868.255	285.872
868.383	281.213
868.512	229.787
868.640	230.617
868.768	224.000
868.896	221.340
869.024	261.468
869.152	233.936
869.280	245.149
869.408	276.085
869.537	233.277
869.665	302.106
869.793	229.383
869.921	264.149
870.049	250.809
870.177	245.043
870.305	278.106
870.433	220.468
870.562	253.745
870.690	221.723
870.818	226.106
870.946	239.426
871.074	274.511
871.202	249.383
871.330	254.362
871.458	214.809
871.587	234.340
871.715	233.106
871.843	226.085
871.971	226.809
872.099	242.809
872.227	233.979
872.355	254.340
872.483	246.574
872.612	248.277
872.740	252.979
872.868	228.511
872.996	234.128
873.124	233.872
873.252	233.447
873.380	236.723
873.508	228.809
873.637	250.319
873.765	229.787
873.893	287.234
874.021	239.191
874.149	232.574
874.277	243.809
874.405	227.532
874.533	238.681
874.662	1132.404
874.790	243.043
874.918	272.766
875.046	260.936
875.174	249.404
875.302	216.532
875.430	267.064
875.558	244.617
875.687	251.128
875.815	234.021
875.943	222.936
876.071	246.957
876.199	256.298
876.327	276.021
876.455	229.298
876.583	255.426
876.712	227.553
876.840	248.872
876.968	278.809
877.096	232.809
877.224	219.319
877.352	285.638
877.480	224.702
877.608	242.255
877.737	242.532
877.865	235.851
877.993	250.383
878.121	214.213
878.249	227.128
878.377	228.277
878.505	236.702
878.633	238.745
878.762	236.213
878.890	222.447
879.018	297.723
879.146	237.702
879.274	222.766
879.402	255.021
879.530	241.660
879.658	219.936
879.787	234.660
879.915	230.872
880.043	263.149
880.171	222.043
880.299	249.511
880.427	242.532
880.555	242.468
880.683	250.553
880.812	229.383
880.940	266.830
881.068	222.638
881.196	228.170
881.324	241.064
881.452	222.234
881.580	259.404
881.708	256.319
881.837	249.894
881.965	242.213
882.093	251.809
882.221	230.745
882.349	267.638
882.477	260.894
882.605	245.128
882.733	225.277
882.862	275.021
882.990	247.085
883.118	236.021
883.246	241.872
883.374	232.511
883.502	237.319
883.630	223.745
883.758	234.149
883.887	251.277
884.015	224.383
884.143	228.809
884.271	243.468
884.399	226.043
884.527	228.106
884.655	215.766
884.783	248.426
884.912	255.702
885.040	226.553
885.168	292.298
885.296	226.979
885.424	246.064
885.552	247.766
885.680	241.915
885.808	230.915
885.937	248.830
886.065	248.872
886.193	223.489
886.321	274.574
886.449	230.426
886.577	276.447
886.705	226.638
886.833	225.426
886.962	231.128
887.090	240.106
887.218	237.128
887.346	249.511
887.474	269.979
887.602	243.894
887.730	240.298
887.858	262.213
887.987	233.191
888.115	267.106
888.243	241.298
888.371	241.936
888.499	231.617
888.627	244.745
888.755	247.383
888.883	235.234
889.012	228.872
889.140	239.936
889.268	258.553
889.396	254.043
889.524	234.809
889.652	224.809
889.780	222.149
889.908	262.894
890.037	226.553
890.165	229.340
890.293	260.660
890.421	284.383
890.549	249.000
890.677	245.319
890.805	224.830
890.933	256.979
891.062	234.574
891.190	232.128
891.318	249.553
891.446	237.340
891.574	233.170
891.702	228.468
891.830	233.872
891.958	268.553
892.087	268.426
892.215	241.298
892.343	247.340
892.471	244.681
892.599	236.319
892.727	253.553
892.855	231.234
892.983	226.702
893.112	235.234
893.240	226.723
893.368	266.638
893.496	236.319
893.624	243.234
893.752	297.234
893.880	273.766
894.008	226.872
894.137	242.298
894.265	240.745
894.393	243.809
894.521	231.787
894.649	259.574
894.777	232.915
894.905	221.383
895.033	264.957
895.162	228.830
895.290	270.894
895.418	254.106
895.546	247.574
895.674	318.404
895.802	230.532
895.930	253.319
896.058	215.830
896.187	227.021
896.315	227.766
896.443	229.787
896.571	231.830
896.699	232.915
896.827	257.489
896.955	245.085
897.083	233.362
897.212	266.489
897.340	236.213
897.468	220.574
897.596	232.489
897.724	277.745
897.852	245.660
897.980	242.596
898.108	243.617
898.237	231.234
898.365	225.723
898.493	246.723
898.621	240.213
898.749	233.340
898.877	242.149
899.005	219.723
899.133	237.404
899.262	248.979
899.390	267.617
899.518	238.489
899.646	233.383
899.774	266.021
899.902	317.915
900.030	250.638
900.158	242.660
900.287	248.681
900.415	221.426
900.543	241.851
900.671	231.915
900.799	262.234
900.927	236.191
901.055	228.340
901.183	244.149
901.312	265.064
901.440	247.447
901.568	251.936
901.696	238.660
901.824	251.106
901.952	248.745
902.080	354.064
902.208	264.809
902.337	234.511
902.465	250.255
902.593	237.404
902.721	248.489
902.849	249.234
902.977	252.915
903.105	243.043
903.233	254.298
903.362	234.894
903.490	249.021
903.618	235.319
903.746	255.766
903.874	223.596
904.002	246.085
904.130	244.894
904.258	255.191
904.387	231.319
904.515	251.787
904.643	226.766
904.771	237.872
904.899	252.617
905.027	260.298
905.155	246.149
905.283	244.830
905.412	263.404
905.540	237.660
905.668	239.468
905.796	242.383
905.924	241.745
906.052	240.511
906.180	263.681
906.308	247.511
906.437	271.702
906.565	245.191
906.693	246.872
906.821	231.404
906.949	239.319
907.077	248.043
907.205	246.043
907.333	247.553
907.462	240.979
907.590	234.319
907.718	262.213
907.846	287.957
907.974	235.340
908.102	242.149
908.230	270.298
908.358	279.574
908.487	253.532
908.615	245.511
908.743	253.553
908.871	301.532
908.999	244.064
909.127	270.596
909.255	227.745
909.383	243.574
909.512	280.872
909.640	249.128
909.768	247.851
909.896	291.660
910.024	267.574
910.152	255.681
910.280	288.426
910.408	245.468
910.537	243.936
910.665	280.915
910.793	249.021
910.921	272.468
911.049	239.574
911.177	233.894
911.305	264.170
911.433	248.894
911.562	248.553
911.690	253.404
911.818	301.809
911.946	243.532
912.074	263.809
912.202	283.745
912.330	247.638
912.458	255.170
912.587	262.255
912.715	273.596
912.843	273.574
912.971	265.383
913.099	290.979
913.227	270.255
913.355	251.702
913.483	271.553
913.612	266.532
913.740	382.468
913.868	263.936
