90pol_90_80_at_750.00nm_cut_at_984.50Y_01.dat
24.04.2023
10:50:25
cut middle at Y: 984.50
top cursor: 1008 down cursor: 961 mean of: 47 lines , 2560 datapoints
wavelength(nm)	intensity[arb. units]
585.996	15597.000
586.124	15117.681
586.252	14978.021
586.380	14951.915
586.508	15006.468
586.637	15090.638
586.765	15171.170
586.893	15145.426
587.021	15187.000
587.149	15293.702
587.277	15248.106
587.405	15345.362
587.533	15203.681
587.662	15387.362
587.790	15361.404
587.918	15317.000
588.046	15326.745
588.174	15271.830
588.302	15373.723
588.430	15352.043
588.558	15337.149
588.687	15347.766
588.815	15299.000
588.943	15295.660
589.071	15228.447
589.199	15378.468
589.327	15383.489
589.455	15293.596
589.583	15394.170
589.712	15434.298
589.840	15310.979
589.968	15305.638
590.096	15342.404
590.224	15366.936
590.352	15339.468
590.480	15327.936
590.608	15364.787
590.737	15451.106
590.865	15471.362
590.993	15310.404
591.121	15418.170
591.249	15404.191
591.377	15412.511
591.505	15404.745
591.633	15425.128
591.762	15399.809
591.890	15615.128
592.018	15417.553
592.146	15443.213
592.274	15436.064
592.402	15430.319
592.530	15483.128
592.658	15755.000
592.787	15591.043
592.915	15754.553
593.043	15599.213
593.171	15698.681
593.299	15746.830
593.427	15745.553
593.555	15763.936
593.683	15781.979
593.812	15878.596
593.940	15852.383
594.068	15911.638
594.196	16039.979
594.324	16027.404
594.452	16029.447
594.580	16060.234
594.708	16125.213
594.837	16100.149
594.965	16219.404
595.093	16286.468
595.221	16280.681
595.349	16396.574
595.477	16366.255
595.605	16371.085
595.733	16358.170
595.862	16624.191
595.990	16537.787
596.118	16603.319
596.246	16724.532
596.374	16622.043
596.502	16647.468
596.630	16670.021
596.758	16679.851
596.887	16730.617
597.015	16816.404
597.143	16770.681
597.271	16797.745
597.399	16839.234
597.527	16723.574
597.655	16857.553
597.783	16813.468
597.912	16761.149
598.040	16819.000
598.168	16828.340
598.296	16837.851
598.424	16811.872
598.552	16859.851
598.680	16773.447
598.808	16887.468
598.937	16834.106
599.065	16774.149
599.193	16866.809
599.321	16858.255
599.449	16820.319
599.577	16747.255
599.705	16804.426
599.833	16781.021
599.962	16788.830
600.090	16826.596
600.218	16861.809
600.346	16949.234
600.474	16880.234
600.602	16885.766
600.730	16909.149
600.858	16983.191
600.987	17135.617
601.115	17030.255
601.243	17120.404
601.371	17102.596
601.499	17174.426
601.627	17219.064
601.755	17323.447
601.883	17386.638
602.012	17464.149
602.140	17415.383
602.268	17614.085
602.396	17581.660
602.524	17760.447
602.652	17654.957
602.780	17783.489
602.908	17859.489
603.037	17909.851
603.165	17971.553
603.293	18090.957
603.421	18060.277
603.549	18202.234
603.677	18385.043
603.805	18368.085
603.933	18417.915
604.062	18580.468
604.190	18592.106
604.318	18784.319
604.446	18744.106
604.574	18823.383
604.702	18894.064
604.830	18977.319
604.958	19019.894
605.087	19130.489
605.215	19185.383
605.343	19280.596
605.471	19325.723
605.599	19445.489
605.727	19413.085
605.855	19504.617
605.983	19497.745
606.112	19592.404
606.240	19599.170
606.368	19701.511
606.496	19834.085
606.624	19680.787
606.752	19794.149
606.880	19937.511
607.008	20010.170
607.137	19926.106
607.265	19774.830
607.393	19897.766
607.521	19933.723
607.649	19822.255
607.777	19871.553
607.905	19905.872
608.033	19807.872
608.162	19896.021
608.290	19875.128
608.418	19808.149
608.546	19891.532
608.674	19840.340
608.802	19823.128
608.930	19809.000
609.058	19803.553
609.187	19898.106
609.315	19940.511
609.443	19846.574
609.571	19925.596
609.699	19848.149
609.827	19913.979
609.955	19900.617
610.083	19848.596
610.212	19884.894
610.340	19798.319
610.468	19911.830
610.596	19972.255
610.724	20005.191
610.852	19912.574
610.980	19977.255
611.108	20049.191
611.237	19956.830
611.365	20002.957
611.493	19982.660
611.621	20122.915
611.749	20195.468
611.877	20244.702
612.005	20282.617
612.133	20392.021
612.262	20448.191
612.390	20421.702
612.518	20453.255
612.646	20585.660
612.774	20623.766
612.902	20694.021
613.030	20829.255
613.158	20933.809
613.287	20930.894
613.415	20928.298
613.543	20901.277
613.671	20914.809
613.799	21110.255
613.927	20964.553
614.055	20926.766
614.183	21259.000
614.312	21174.085
614.440	21294.702
614.568	21330.043
614.696	21418.511
614.824	21514.979
614.952	21410.702
615.080	21529.489
615.208	21640.596
615.337	21665.404
615.465	21753.745
615.593	21970.468
615.721	22077.766
615.849	22172.319
615.977	22197.255
616.105	22216.191
616.233	22153.809
616.362	22231.426
616.490	22250.745
616.618	22319.596
616.746	22397.298
616.874	22446.106
617.002	22409.915
617.130	22476.787
617.258	22711.830
617.387	22616.638
617.515	22615.638
617.643	22626.979
617.771	22644.000
617.899	22720.787
618.027	22783.149
618.155	22850.787
618.283	22826.000
618.412	22865.319
618.540	22977.404
618.668	22895.149
618.796	22956.404
618.924	23080.957
619.052	23003.149
619.180	23100.234
619.308	23132.532
619.437	23140.064
619.565	23089.553
619.693	23109.723
619.821	23106.170
619.949	23114.298
620.077	23243.213
620.205	23304.638
620.333	23362.532
620.462	23281.681
620.590	23392.447
620.718	23277.766
620.846	23398.915
620.974	23359.128
621.102	23321.468
621.230	23342.149
621.358	23463.894
621.487	23383.362
621.615	23470.617
621.743	23546.936
621.871	23489.809
621.999	23529.936
622.127	23500.936
622.255	23534.277
622.383	23550.787
622.512	23514.511
622.640	23668.766
622.768	23541.255
622.896	23550.979
623.024	23604.617
623.152	23727.915
623.280	23567.128
623.408	23637.830
623.537	23563.745
623.665	23548.787
623.793	23594.298
623.921	23598.809
624.049	23603.745
624.177	23607.170
624.305	23675.723
624.433	23607.234
624.562	23746.277
624.690	23656.787
624.818	23668.638
624.946	23741.340
625.074	23660.021
625.202	23703.426
625.330	23647.191
625.458	23676.681
625.587	23650.021
625.715	23712.660
625.843	23734.043
625.971	23727.191
626.099	23766.468
626.227	23723.894
626.355	23675.085
626.483	23806.638
626.612	23739.489
626.740	23738.660
626.868	23816.936
626.996	23777.106
627.124	23714.596
627.252	23778.489
627.380	23832.383
627.508	23910.362
627.637	23762.085
627.765	23897.319
627.893	23962.851
628.021	23999.277
628.149	24198.277
628.277	24371.340
628.405	24310.213
628.533	24164.064
628.662	24152.511
628.790	24117.915
628.918	24209.936
629.046	24266.319
629.174	24414.106
629.302	24684.745
629.430	24555.511
629.558	24395.745
629.687	24395.894
629.815	24530.894
629.943	24527.787
630.071	24656.596
630.199	24670.064
630.327	24688.766
630.455	24700.234
630.583	24879.277
630.712	24825.617
630.840	24869.723
630.968	24935.404
631.096	24910.404
631.224	24905.149
631.352	24971.362
631.480	24994.277
631.608	25065.362
631.737	25162.277
631.865	25182.574
631.993	25109.574
632.121	25186.064
632.249	25214.319
632.377	25130.383
632.505	25184.000
632.633	25019.915
632.762	25154.128
632.890	25162.404
633.018	25031.574
633.146	25251.149
633.274	25105.021
633.402	25142.383
633.530	25070.191
633.658	25194.468
633.787	24996.489
633.915	24993.085
634.043	24951.426
634.171	25033.936
634.299	24981.979
634.427	24978.468
634.555	24962.553
634.683	24852.021
634.812	24893.915
634.940	24822.617
635.068	24784.723
635.196	24781.191
635.324	24765.213
635.452	24786.340
635.580	24691.106
635.708	24650.894
635.837	24641.319
635.965	24559.319
636.093	24484.213
636.221	24543.340
636.349	24589.170
636.477	24363.745
636.605	24608.638
636.733	24291.638
636.862	24270.000
636.990	24304.468
637.118	24282.702
637.246	24287.872
637.374	24162.447
637.502	24216.404
637.630	24089.979
637.758	24084.574
637.887	24050.809
638.015	23953.383
638.143	23976.404
638.271	23893.298
638.399	23901.489
638.527	23903.638
638.655	23892.404
638.783	23983.213
638.912	23912.957
639.040	23855.638
639.168	23874.404
639.296	23779.553
639.424	23907.723
639.552	23770.745
639.680	23934.596
639.808	23742.489
639.937	23753.936
640.065	23663.766
640.193	23749.340
640.321	23659.404
640.449	23709.723
640.577	23711.745
640.705	23644.277
640.833	23777.830
640.962	23542.362
641.090	23549.894
641.218	23599.915
641.346	23658.298
641.474	23660.021
641.602	23614.596
641.730	23663.915
641.858	23672.170
641.987	23623.191
642.115	23640.085
642.243	23641.532
642.371	23627.511
642.499	23621.723
642.627	23649.681
642.755	23596.872
642.883	23701.596
643.012	23647.830
643.140	23585.106
643.268	23661.511
643.396	23683.234
643.524	23827.660
643.652	23697.787
643.780	23627.404
643.908	23698.213
644.037	23743.894
644.165	23640.149
644.293	23687.383
644.421	23717.362
644.549	23761.149
644.677	23664.277
644.805	23709.447
644.933	23603.851
645.062	23604.511
645.190	23603.234
645.318	23691.915
645.446	23577.340
645.574	23626.149
645.702	23567.957
645.830	23720.936
645.958	23497.064
646.087	23695.511
646.215	23456.426
646.343	23592.383
646.471	23482.915
646.599	23377.915
646.727	23353.362
646.855	23378.872
646.983	23381.894
647.112	23295.170
647.240	23407.383
647.368	23246.000
647.496	23295.298
647.624	23162.426
647.752	23106.277
647.880	23049.191
648.008	22999.298
648.137	23010.106
648.265	22978.000
648.393	22902.447
648.521	22954.064
648.649	22851.553
648.777	22830.915
648.905	22800.979
649.033	22723.957
649.162	22683.404
649.290	22682.362
649.418	22594.574
649.546	22558.745
649.674	22538.489
649.802	22454.404
649.930	22532.000
650.058	22398.447
650.187	22338.681
650.315	22263.191
650.443	22272.170
650.571	22220.872
650.699	22225.723
650.827	22154.277
650.955	22118.021
651.083	22099.426
651.212	22046.745
651.340	22078.766
651.468	22008.851
651.596	21926.596
651.724	21931.128
651.852	21869.255
651.980	21796.617
652.108	21819.809
652.237	21789.106
652.365	21789.787
652.493	21670.128
652.621	21672.021
652.749	21712.085
652.877	21673.979
653.005	21629.851
653.133	21562.170
653.262	21604.085
653.390	21498.426
653.518	21526.660
653.646	21457.298
653.774	21619.596
653.902	21408.064
654.030	21356.043
654.158	21257.106
654.287	21267.277
654.415	21247.426
654.543	21260.638
654.671	21245.660
654.799	21134.213
654.927	21127.043
655.055	21041.447
655.183	21053.106
655.312	21034.872
655.440	21005.851
655.568	20965.170
655.696	20977.894
655.824	21011.021
655.952	20908.745
656.080	20814.596
656.208	20867.596
656.337	20689.170
656.465	20789.681
656.593	20634.000
656.721	20565.043
656.849	20543.915
656.977	20533.128
657.105	20454.191
657.233	20385.128
657.362	20357.915
657.490	20230.851
657.618	20275.234
657.746	20193.553
657.874	20123.234
658.002	20137.255
658.130	20050.894
658.258	19998.447
658.387	20024.830
658.515	19887.000
658.643	19915.234
658.771	19868.298
658.899	19818.979
659.027	19781.851
659.155	19807.702
659.283	19824.319
659.412	19630.957
659.540	19699.043
659.668	19512.766
659.796	19581.936
659.924	19512.404
660.052	19464.936
660.180	19417.319
660.308	19355.532
660.437	19273.447
660.565	19289.021
660.693	19229.404
660.821	19222.745
660.949	19194.894
661.077	19161.915
661.205	19107.447
661.333	18998.213
661.462	19100.745
661.590	19017.234
661.718	19160.106
661.846	19030.681
661.974	19100.234
662.102	18961.532
662.230	18936.426
662.358	18836.787
662.487	18869.043
662.615	18773.277
662.743	18791.957
662.871	18749.936
662.999	18680.936
663.127	18639.660
663.255	18804.404
663.383	18733.851
663.512	18616.319
663.640	18723.000
663.768	18630.021
663.896	18697.787
664.024	18706.340
664.152	18624.979
664.280	18676.191
664.408	18649.894
664.537	18611.957
664.665	18579.532
664.793	18538.532
664.921	18479.809
665.049	18549.255
665.177	18561.489
665.305	18510.170
665.433	18472.255
665.562	18454.362
665.690	18482.809
665.818	18615.426
665.946	18497.447
666.074	18403.511
666.202	18470.319
666.330	18445.851
666.458	18455.574
666.587	18436.021
666.715	18441.872
666.843	18407.511
666.971	18411.191
667.099	18398.787
667.227	18361.766
667.355	18342.596
667.483	18343.106
667.612	18334.979
667.740	18345.596
667.868	18389.043
667.996	18310.915
668.124	18267.638
668.252	18280.426
668.380	18271.298
668.508	18227.766
668.637	18209.404
668.765	18141.000
668.893	18161.426
669.021	18071.319
669.149	18037.234
669.277	18152.170
669.405	17987.149
669.533	18056.277
669.662	18210.170
669.790	17990.809
669.918	18004.170
670.046	17901.532
670.174	17939.298
670.302	17893.319
670.430	17820.766
670.558	17825.319
670.687	17691.128
670.815	17835.979
670.943	17637.936
671.071	17639.766
671.199	17667.723
671.327	17567.638
671.455	17563.319
671.583	17485.617
671.712	17625.319
671.840	17448.766
671.968	17318.872
672.096	17340.362
672.224	17277.213
672.352	17357.894
672.480	17172.787
672.608	17109.489
672.737	17029.000
672.865	17171.319
672.993	16968.830
673.121	16864.511
673.249	16815.383
673.377	16809.979
673.505	16769.000
673.633	16732.383
673.762	16640.681
673.890	16592.723
674.018	16855.234
674.146	16515.638
674.274	16473.170
674.402	16599.574
674.530	16415.043
674.658	16353.511
674.787	16280.404
674.915	16216.191
675.043	16267.787
675.171	16201.872
675.299	16097.021
675.427	16090.532
675.555	16012.936
675.683	15949.830
675.812	15954.957
675.940	15919.809
676.068	15894.979
676.196	15813.617
676.324	15792.915
676.452	15712.234
676.580	15640.894
676.708	15655.809
676.837	15601.426
676.965	15583.830
677.093	15537.404
677.221	15465.255
677.349	15440.617
677.477	15468.021
677.605	15347.298
677.733	15363.043
677.862	15206.085
677.990	15207.468
678.118	15137.468
678.246	15155.043
678.374	15201.468
678.502	15062.298
678.630	15061.064
678.758	15021.255
678.887	14952.851
679.015	14947.936
679.143	14945.383
679.271	14874.915
679.399	14907.234
679.527	14852.213
679.655	14793.298
679.783	14761.894
679.912	14820.128
680.040	14740.766
680.168	14724.553
680.296	14668.660
680.424	14553.234
680.552	14609.851
680.680	14596.149
680.808	14531.021
680.937	14521.723
681.065	14464.085
681.193	14439.298
681.321	14431.191
681.449	14406.766
681.577	14383.128
681.705	14389.085
681.833	14336.383
681.962	14304.234
682.090	14510.298
682.218	14329.298
682.346	14282.468
682.474	14334.128
682.602	14286.404
682.730	14274.277
682.858	14202.872
682.987	14276.362
683.115	14220.979
683.243	14175.213
683.371	14159.000
683.499	14166.106
683.627	14191.787
683.755	14150.851
683.883	14316.277
684.012	14152.617
684.140	14112.149
684.268	14096.809
684.396	14100.617
684.524	14122.830
684.652	14105.277
684.780	14077.851
684.908	14141.809
685.037	14038.809
685.165	13988.234
685.293	13921.319
685.421	14069.979
685.549	13932.745
685.677	13878.979
685.805	14053.277
685.933	13954.532
686.062	13790.064
686.190	13781.085
686.318	13874.277
686.446	13796.957
686.574	13742.489
686.702	13900.043
686.830	13723.681
686.958	13700.362
687.087	13698.681
687.215	13739.489
687.343	13613.383
687.471	13620.936
687.599	13580.340
687.727	13792.128
687.855	13568.149
687.983	13568.511
688.112	13591.553
688.240	13477.149
688.368	13441.255
688.496	13432.085
688.624	13482.766
688.752	13348.106
688.880	13381.766
689.008	13329.809
689.137	13307.489
689.265	13275.809
689.393	13229.191
689.521	13191.170
689.649	13168.043
689.777	13124.234
689.905	13143.170
690.033	13088.106
690.162	13075.128
690.290	13065.532
690.418	13008.277
690.546	13076.149
690.674	13018.170
690.802	12961.426
690.930	12921.511
691.058	12908.894
691.187	12828.638
691.315	12850.170
691.443	12852.468
691.571	12753.681
691.699	12787.915
691.827	12764.404
691.955	12669.043
692.083	12633.213
692.212	12756.404
692.340	12560.255
692.468	12553.362
692.596	12543.468
692.724	12619.638
692.852	12452.362
692.980	12491.894
693.108	12456.957
693.237	12386.532
693.365	12350.319
693.493	12275.319
693.621	12339.511
693.749	12235.574
693.877	12209.021
694.005	12263.362
694.133	12188.043
694.262	12178.511
694.390	12102.915
694.518	12091.277
694.646	12041.426
694.774	12045.872
694.902	12122.149
695.030	12024.106
695.158	11901.894
695.287	11931.830
695.415	11953.596
695.543	11854.404
695.671	11954.426
695.799	11841.809
695.927	11793.170
696.055	11776.787
696.183	11741.638
696.312	11718.936
696.440	11862.489
696.568	11780.319
696.696	11715.489
696.824	11593.277
696.952	11540.723
697.080	11571.255
697.208	11464.872
697.337	11557.894
697.465	11432.340
697.593	11423.745
697.721	11476.234
697.849	11360.830
697.977	11343.723
698.105	11351.213
698.233	11224.574
698.362	11259.340
698.490	11246.277
698.618	11163.021
698.746	11260.787
698.874	11138.809
699.002	11384.511
699.130	11102.915
699.258	11084.638
699.387	10986.638
699.515	11024.702
699.643	10979.787
699.771	11034.489
699.899	10890.064
700.027	10888.106
700.155	10866.191
700.283	10895.255
700.412	10822.596
700.540	10713.830
700.668	10765.277
700.796	10658.809
700.924	10661.574
701.052	10646.064
701.180	10647.043
701.308	10587.234
701.437	10436.617
701.565	10424.702
701.693	10417.574
701.821	10415.957
701.949	10402.872
702.077	10369.362
702.205	10262.128
702.333	10238.234
702.462	10200.511
702.590	10163.489
702.718	10066.596
702.846	10142.957
702.974	9992.000
703.102	10069.191
703.230	10114.000
703.358	9962.064
703.487	9885.809
703.615	10027.021
703.743	9821.149
703.871	9805.574
703.999	9758.851
704.127	9847.979
704.255	9622.277
704.383	9774.745
704.512	9616.532
704.640	9561.362
704.768	9450.638
704.896	9555.766
705.024	9378.532
705.152	9478.468
705.280	9332.830
705.408	9257.319
705.537	9293.574
705.665	9170.532
705.793	9161.106
705.921	9092.638
706.049	9121.085
706.177	9014.213
706.305	9012.915
706.433	9058.915
706.562	8985.766
706.690	8886.511
706.818	8826.936
706.946	9006.511
707.074	8823.255
707.202	8787.234
707.330	8796.021
707.458	8698.043
707.587	8640.830
707.715	8622.915
707.843	8627.213
707.971	8571.277
708.099	8625.638
708.227	8510.702
708.355	8451.723
708.483	8432.383
708.612	8377.681
708.740	8369.298
708.868	8412.723
708.996	8343.638
709.124	8330.043
709.252	8265.809
709.380	8227.872
709.508	8250.128
709.637	8185.532
709.765	8165.809
709.893	8150.383
710.021	8080.362
710.149	8027.319
710.277	8139.170
710.405	8030.149
710.533	7993.255
710.662	7973.787
710.790	7934.234
710.918	7952.766
711.046	7944.106
711.174	7885.489
711.302	7874.085
711.430	7913.872
711.558	7770.128
711.687	7757.511
711.815	7784.213
711.943	7747.979
712.071	7697.936
712.199	7756.830
712.327	7705.383
712.455	7614.979
712.583	7678.553
712.712	7618.681
712.840	7579.511
712.968	7574.000
713.096	7593.085
713.224	7460.617
713.352	7489.340
713.480	7435.213
713.608	7454.255
713.737	7439.128
713.865	7466.979
713.993	7444.723
714.121	7379.085
714.249	7389.298
714.377	7472.681
714.505	7409.723
714.633	7455.809
714.762	7315.894
714.890	7276.298
715.018	7276.277
715.146	7254.596
715.274	7278.830
715.402	7361.489
715.530	7274.234
715.658	7147.915
715.787	7109.638
715.915	7286.638
716.043	7115.511
716.171	7134.149
716.299	7141.234
716.427	7081.957
716.555	6996.596
716.683	7022.681
716.812	6968.085
716.940	6971.000
717.068	6929.553
717.196	7066.149
717.324	7001.830
717.452	6918.894
717.580	6844.660
717.708	6840.383
717.837	6882.681
717.965	6790.213
718.093	6775.809
718.221	6683.085
718.349	6756.979
718.477	6703.979
718.605	6705.851
718.733	6667.064
718.862	6679.319
718.990	6600.574
719.118	6601.149
719.246	6545.298
719.374	6633.660
719.502	6528.936
719.630	6631.787
719.758	6472.191
719.887	6431.340
720.015	6603.170
720.143	6362.894
720.271	6340.383
720.399	6363.894
720.527	6360.404
720.655	6387.106
720.783	6348.064
720.912	6259.574
721.040	6225.745
721.168	6182.766
721.296	6222.936
721.424	6147.085
721.552	6065.596
721.680	6059.830
721.808	6070.957
721.937	6017.830
722.065	6100.957
722.193	6113.426
722.321	5938.830
722.449	5929.170
722.577	5872.021
722.705	5859.021
722.833	5872.128
722.962	5847.000
723.090	5771.957
723.218	5685.617
723.346	5734.511
723.474	5666.766
723.602	5826.787
723.730	5748.149
723.858	5832.085
723.987	5692.957
724.115	5670.660
724.243	5549.085
724.371	5591.426
724.499	5552.681
724.627	5445.149
724.755	5459.702
724.883	5442.872
725.012	5403.021
725.140	5423.170
725.268	5364.149
725.396	5283.681
725.524	5271.745
725.652	5273.298
725.780	5250.106
725.908	5284.638
726.037	5381.489
726.165	5150.702
726.293	5150.511
726.421	5097.064
726.549	5087.532
726.677	5086.149
726.805	5066.468
726.933	5015.851
727.062	5061.532
727.190	5025.426
727.318	4937.532
727.446	4974.000
727.574	4916.681
727.702	5033.851
727.830	4844.213
727.958	4938.255
728.087	4818.149
728.215	4944.277
728.343	4926.553
728.471	4739.766
728.599	4774.702
728.727	4830.362
728.855	4692.979
728.983	4695.085
729.112	4699.511
729.240	4634.383
729.368	4681.277
729.496	4656.021
729.624	4644.596
729.752	4572.660
729.880	4595.532
730.008	4537.426
730.137	4537.532
730.265	4685.936
730.393	4480.681
730.521	4587.234
730.649	4470.681
730.777	4473.191
730.905	4416.809
731.033	4522.745
731.162	4615.468
731.290	4501.191
731.418	4582.426
731.546	4508.298
731.674	4397.681
731.802	4411.298
731.930	4288.766
732.058	4284.340
732.187	4270.851
732.315	4226.106
732.443	4231.830
732.571	4334.617
732.699	4245.957
732.827	4231.681
732.955	4147.787
733.083	4109.787
733.212	4196.660
733.340	4160.234
733.468	4189.170
733.596	4065.851
733.724	4087.319
733.852	4020.830
733.980	4060.234
734.108	4219.213
734.237	4095.851
734.365	4100.085
734.493	3978.021
734.621	3975.106
734.749	3977.404
734.877	3973.574
735.005	3945.979
735.133	3953.021
735.262	3980.915
735.390	3849.936
735.518	4000.702
735.646	3825.957
735.774	3802.851
735.902	3817.213
736.030	3757.872
736.158	3834.255
736.287	3728.426
736.415	3915.660
736.543	3762.255
736.671	3721.404
736.799	3704.681
736.927	3733.489
737.055	3657.064
737.183	3747.830
737.312	3690.936
737.440	3659.809
737.568	3645.468
737.696	3614.511
737.824	3636.085
737.952	3594.723
738.080	3558.213
738.208	3565.681
738.337	3563.426
738.465	3555.170
738.593	3494.745
738.721	3450.064
738.849	3448.319
738.977	3438.532
739.105	3467.638
739.233	3412.255
739.362	3429.809
739.490	3327.319
739.618	3327.596
739.746	3338.596
739.874	3497.383
740.002	3459.043
740.130	3370.574
740.258	3261.447
740.387	3201.979
740.515	3337.532
740.643	3198.830
740.771	3240.660
740.899	3189.851
741.027	3256.489
741.155	3325.043
741.283	3145.872
741.412	3107.340
741.540	3112.128
741.668	3227.234
741.796	3244.021
741.924	3132.149
742.052	3041.213
742.180	3199.787
742.308	3042.702
742.437	3037.319
742.565	3127.298
742.693	3210.191
742.821	3094.128
742.949	3031.851
743.077	2975.383
743.205	2930.213
743.333	2965.043
743.462	2944.383
743.590	2960.404
743.718	2858.936
743.846	2886.745
743.974	2934.723
744.102	3036.681
744.230	2877.298
744.358	2846.489
744.487	2805.404
744.615	2844.511
744.743	2791.128
744.871	2757.532
744.999	2845.936
745.127	2797.128
745.255	2736.766
745.383	2734.830
745.512	2752.872
745.640	2665.809
745.768	2692.660
745.896	2705.255
746.024	2656.766
746.152	2663.340
746.280	2641.340
746.408	2690.170
746.537	2756.830
746.665	2638.787
746.793	2652.553
746.921	2605.000
747.049	2792.617
747.177	2651.851
747.305	2621.213
747.433	2640.298
747.562	2578.319
747.690	2620.298
747.818	2623.617
747.946	2553.553
748.074	2651.128
748.202	2581.447
748.330	2654.468
748.458	2561.383
748.587	2531.596
748.715	2515.787
748.843	2558.234
748.971	2543.851
749.099	2548.596
749.227	2566.170
749.355	2509.298
749.483	2489.021
749.612	2507.809
749.740	2524.404
749.868	2517.106
749.996	2488.234
750.124	2461.149
750.252	2465.043
750.380	2479.191
750.508	2466.064
750.637	2431.149
750.765	2477.213
750.893	2453.596
751.021	2472.511
751.149	2462.043
751.277	2448.404
751.405	2454.404
751.533	2496.000
751.662	2422.957
751.790	2417.213
751.918	2375.255
752.046	2370.894
752.174	2348.872
752.302	2401.149
752.430	2350.234
752.558	2306.000
752.687	2313.255
752.815	2324.660
752.943	2301.191
753.071	2280.553
753.199	2279.830
753.327	2307.362
753.455	2280.723
753.583	2237.213
753.712	2246.362
753.840	2222.638
753.968	2196.255
754.096	2207.553
754.224	2162.872
754.352	2161.447
754.480	2176.936
754.608	2156.511
754.737	2149.723
754.865	2195.915
754.993	2142.787
755.121	2117.106
755.249	2201.106
755.377	2110.511
755.505	2092.362
755.633	2126.362
755.762	2071.894
755.890	2134.043
756.018	2090.170
756.146	2042.234
756.274	2025.809
756.402	2020.489
756.530	2021.957
756.658	2053.723
756.787	2015.362
756.915	1974.298
757.043	1988.872
757.171	1982.043
757.299	1975.681
757.427	1941.723
757.555	1957.043
757.683	1974.404
757.812	1908.830
757.940	1898.702
758.068	1899.404
758.196	1883.149
758.324	1863.936
758.452	1964.745
758.580	1845.638
758.708	1863.915
758.837	1838.638
758.965	1916.894
759.093	1818.489
759.221	1787.255
759.349	1801.596
759.477	1786.894
759.605	1772.702
759.733	1757.426
759.862	1785.681
759.990	1745.617
760.118	1750.277
760.246	1705.404
760.374	1723.383
760.502	1744.787
760.630	1705.766
760.758	1686.404
760.887	1658.574
761.015	1701.979
761.143	1637.915
761.271	1659.830
761.399	1635.085
761.527	1639.851
761.655	1630.213
761.783	1635.106
761.912	1596.149
762.040	1583.043
762.168	1618.468
762.296	1591.681
762.424	1580.957
762.552	1574.511
762.680	1633.979
762.808	1542.340
762.937	1549.021
763.065	1600.766
763.193	1590.298
763.321	1531.723
763.449	1491.851
763.577	1512.085
763.705	1506.489
763.833	1572.787
763.962	1483.660
764.090	1458.574
764.218	1482.319
764.346	1469.723
764.474	1436.085
764.602	1440.043
764.730	1420.638
764.858	1443.340
764.987	1419.638
765.115	1459.553
765.243	1401.234
765.371	1390.362
765.499	1365.298
765.627	1363.362
765.755	1362.255
765.883	1380.383
766.012	1359.851
766.140	1350.979
766.268	1340.489
766.396	1321.511
766.524	1338.936
766.652	1312.085
766.780	1321.872
766.908	1310.319
767.037	1305.511
767.165	1315.681
767.293	1354.745
767.421	1292.809
767.549	1275.447
767.677	1253.681
767.805	1265.787
767.933	1271.957
768.062	1268.553
768.190	1258.957
768.318	1246.617
768.446	1258.277
768.574	1260.574
768.702	1264.000
768.830	1226.404
768.958	1216.489
769.087	1179.511
769.215	1201.574
769.343	1202.617
769.471	1174.170
769.599	1216.170
769.727	1194.809
769.855	1180.766
769.983	1148.851
770.112	1163.021
770.240	1131.553
770.368	1155.362
770.496	1140.702
770.624	1130.085
770.752	1150.277
770.880	1158.936
771.008	1127.915
771.137	1118.957
771.265	1167.574
771.393	1135.191
771.521	1117.426
771.649	1094.128
771.777	1106.596
771.905	1097.213
772.033	1084.851
772.162	1114.426
772.290	1082.787
772.418	1126.511
772.546	1090.149
772.674	1062.787
772.802	1068.809
772.930	1109.383
773.058	1045.426
773.187	1056.021
773.315	1051.277
773.443	1050.021
773.571	1041.277
773.699	1031.383
773.827	1010.830
773.955	1061.830
774.083	1043.681
774.212	1017.468
774.340	1034.809
774.468	1012.787
774.596	993.043
774.724	988.404
774.852	1002.000
774.980	989.000
775.108	984.128
775.237	983.234
775.365	978.404
775.493	972.830
775.621	985.660
775.749	974.766
775.877	962.255
776.005	961.511
776.133	966.319
776.262	956.298
776.390	930.000
776.518	973.872
776.646	930.213
776.774	946.830
776.902	942.298
777.030	922.213
777.158	934.596
777.287	947.000
777.415	912.702
777.543	914.404
777.671	901.766
777.799	890.872
777.927	894.851
778.055	905.872
778.183	889.681
778.312	859.979
778.440	881.936
778.568	896.383
778.696	869.638
778.824	850.106
778.952	860.872
779.080	851.255
779.208	885.894
779.337	870.553
779.465	853.915
779.593	838.191
779.721	851.681
779.849	839.723
779.977	825.617
780.105	798.660
780.233	832.596
780.362	848.574
780.490	853.468
780.618	813.234
780.746	823.213
780.874	797.681
781.002	804.681
781.130	791.596
781.258	783.872
781.387	791.957
781.515	789.255
781.643	781.596
781.771	813.766
781.899	764.319
782.027	817.681
782.155	765.043
782.283	773.213
782.412	758.787
782.540	762.979
782.668	791.681
782.796	731.553
782.924	768.596
783.052	748.745
783.180	762.277
783.308	722.426
783.437	735.234
783.565	733.277
783.693	741.915
783.821	727.404
783.949	711.277
784.077	732.660
784.205	726.660
784.333	766.213
784.462	684.511
784.590	710.468
784.718	709.447
784.846	680.894
784.974	716.000
785.102	743.447
785.230	687.277
785.358	728.043
785.487	701.128
785.615	691.447
785.743	677.234
785.871	681.362
785.999	666.532
786.127	645.170
786.255	672.617
786.383	695.553
786.512	674.468
786.640	665.532
786.768	679.319
786.896	659.234
787.024	653.830
787.152	650.851
787.280	644.511
787.408	630.936
787.537	670.574
787.665	653.447
787.793	665.213
787.921	644.936
788.049	640.809
788.177	623.426
788.305	624.340
788.433	648.830
788.562	616.596
788.690	614.319
788.818	618.511
788.946	632.830
789.074	613.468
789.202	628.851
789.330	625.213
789.458	611.085
789.587	662.915
789.715	605.851
789.843	604.766
789.971	594.319
790.099	587.851
790.227	610.191
790.355	590.362
790.483	615.851
790.612	595.085
790.740	591.809
790.868	601.170
790.996	593.979
791.124	578.809
791.252	581.979
791.380	590.574
791.508	590.191
791.637	569.277
791.765	570.511
791.893	561.787
792.021	580.404
792.149	572.723
792.277	571.298
792.405	550.106
792.533	577.213
792.662	533.085
792.790	545.319
792.918	561.447
793.046	552.255
793.174	565.681
793.302	549.489
793.430	551.064
793.558	536.702
793.687	550.702
793.815	546.809
793.943	561.362
794.071	558.170
794.199	533.830
794.327	534.468
794.455	623.404
794.583	616.745
794.712	529.340
794.840	527.936
794.968	532.638
795.096	545.234
795.224	510.638
795.352	514.894
795.480	546.511
795.608	531.851
795.737	516.809
795.865	501.660
795.993	505.532
796.121	491.532
796.249	501.894
796.377	522.404
796.505	501.000
796.633	491.043
796.762	487.766
796.890	499.447
797.018	506.596
797.146	485.638
797.274	473.234
797.402	481.298
797.530	491.915
797.658	484.298
797.787	525.021
797.915	480.766
798.043	491.170
798.171	464.574
798.299	476.638
798.427	467.809
798.555	469.957
798.683	448.426
798.812	472.383
798.940	525.957
799.068	456.213
799.196	497.511
799.324	453.043
799.452	465.106
799.580	439.702
799.708	509.404
799.837	445.213
799.965	447.894
800.093	464.340
800.221	422.979
800.349	451.000
800.477	442.936
800.605	440.574
800.733	457.362
800.862	453.830
800.990	480.149
801.118	432.617
801.246	433.553
801.374	443.681
801.502	428.447
801.630	417.426
801.758	430.128
801.887	447.596
802.015	421.383
802.143	409.830
802.271	440.766
802.399	427.191
802.527	400.915
802.655	448.830
802.783	466.043
802.912	418.277
803.040	413.787
803.168	398.447
803.296	392.660
803.424	415.681
803.552	400.277
803.680	406.234
803.808	417.957
803.937	401.106
804.065	387.638
804.193	395.064
804.321	452.426
804.449	384.234
804.577	392.660
804.705	395.617
804.833	427.234
804.962	387.383
805.090	394.596
805.218	399.255
805.346	396.043
805.474	400.277
805.602	410.426
805.730	387.362
805.858	368.383
805.987	387.809
806.115	394.553
806.243	390.532
806.371	423.128
806.499	489.957
806.627	510.021
806.755	486.362
806.883	388.383
807.012	378.128
807.140	400.979
807.268	387.021
807.396	386.596
807.524	363.085
807.652	371.043
807.780	425.681
807.908	359.702
808.037	408.532
808.165	397.894
808.293	381.766
808.421	415.000
808.549	361.426
808.677	363.021
808.805	403.021
808.933	365.426
809.062	377.298
809.190	418.957
809.318	370.830
809.446	354.638
809.574	410.979
809.702	349.936
809.830	370.085
809.958	364.787
810.087	362.936
810.215	375.745
810.343	368.234
810.471	364.532
810.599	350.255
810.727	353.681
810.855	338.638
810.983	346.723
811.112	357.681
811.240	345.660
811.368	360.702
811.496	394.043
811.624	365.277
811.752	345.277
811.880	348.915
812.008	332.660
812.137	353.553
812.265	327.915
812.393	354.191
812.521	365.383
812.649	346.660
812.777	340.574
812.905	373.298
813.033	332.426
813.162	324.213
813.290	334.787
813.418	352.979
813.546	330.468
813.674	336.894
813.802	339.085
813.930	320.468
814.058	324.191
814.187	339.021
814.315	327.277
814.443	340.574
814.571	344.915
814.699	361.426
814.827	326.617
814.955	325.809
815.083	351.979
815.212	351.532
815.340	366.702
815.468	317.128
815.596	325.915
815.724	332.085
815.852	318.128
815.980	318.383
816.108	324.404
816.237	309.723
816.365	328.149
816.493	327.936
816.621	316.596
816.749	328.468
816.877	336.277
817.005	342.021
817.133	338.596
817.262	312.511
817.390	314.702
817.518	312.468
817.646	330.574
817.774	311.234
817.902	305.298
818.030	311.277
818.158	354.553
818.287	334.255
818.415	302.234
818.543	312.915
818.671	332.021
818.799	305.021
818.927	315.936
819.055	317.234
819.183	303.426
819.312	318.298
819.440	309.319
819.568	299.787
819.696	312.319
819.824	322.362
819.952	302.660
820.080	309.702
820.208	305.596
820.337	301.638
820.465	334.043
820.593	301.957
820.721	300.340
820.849	309.638
820.977	298.957
821.105	312.064
821.233	277.383
821.362	325.149
821.490	283.383
821.618	295.511
821.746	288.553
821.874	298.085
822.002	299.447
822.130	298.447
822.258	286.255
822.387	281.149
822.515	306.979
822.643	305.638
822.771	305.340
822.899	300.021
823.027	331.872
823.155	285.915
823.283	276.553
823.412	305.362
823.540	289.234
823.668	340.447
823.796	287.553
823.924	308.574
824.052	330.064
824.180	303.106
824.308	275.511
824.437	280.170
824.565	288.255
824.693	303.723
824.821	300.532
824.949	303.404
825.077	297.809
825.205	323.809
825.333	308.298
825.462	305.426
825.590	290.043
825.718	313.872
825.846	290.362
825.974	273.298
826.102	281.979
826.230	281.213
826.358	289.638
826.487	278.340
826.615	319.362
826.743	267.340
826.871	304.745
826.999	338.957
827.127	280.128
827.255	288.596
827.383	276.000
827.512	304.936
827.640	268.936
827.768	270.362
827.896	285.872
828.024	277.234
828.152	275.596
828.280	280.213
828.408	273.106
828.537	276.064
828.665	281.638
828.793	287.894
828.921	264.489
829.049	290.298
829.177	274.872
829.305	265.787
829.433	283.213
829.562	285.447
829.690	264.447
829.818	298.830
829.946	272.106
830.074	285.170
830.202	283.745
830.330	296.085
830.458	316.511
830.587	275.191
830.715	280.404
830.843	276.085
830.971	286.128
831.099	304.043
831.227	267.809
831.355	271.255
831.483	281.745
831.612	301.234
831.740	270.213
831.868	273.638
831.996	268.000
832.124	267.128
832.252	255.872
832.380	273.213
832.508	323.979
832.637	266.851
832.765	274.638
832.893	303.277
833.021	266.979
833.149	254.043
833.277	267.574
833.405	262.468
833.533	261.447
833.662	269.298
833.790	261.681
833.918	274.957
834.046	306.936
834.174	271.362
834.302	263.170
834.430	259.170
834.558	266.234
834.687	278.404
834.815	252.191
834.943	270.489
835.071	268.511
835.199	261.979
835.327	283.957
835.455	261.574
835.583	301.830
835.712	251.851
835.840	257.979
835.968	260.979
836.096	311.128
836.224	273.255
836.352	252.191
836.480	271.468
836.608	266.745
836.737	257.106
836.865	251.532
836.993	272.489
837.121	264.128
837.249	253.617
837.377	282.553
837.505	273.553
837.633	254.979
837.762	262.702
837.890	294.915
838.018	288.681
838.146	292.298
838.274	269.170
838.402	282.574
838.530	258.191
838.658	247.000
838.787	263.340
838.915	260.170
839.043	239.191
839.171	281.766
839.299	241.660
839.427	258.362
839.555	258.085
839.683	273.553
839.812	290.489
839.940	245.702
840.068	272.043
840.196	261.638
840.324	252.255
840.452	257.191
840.580	289.447
840.708	258.064
840.837	285.787
840.965	252.702
841.093	255.170
841.221	246.617
841.349	260.766
841.477	270.362
841.605	268.128
841.733	246.872
841.862	257.553
841.990	308.128
842.118	236.489
842.246	248.681
842.374	259.702
842.502	235.404
842.630	267.957
842.758	275.915
842.887	246.681
843.015	256.660
843.143	270.170
843.271	257.489
843.399	286.702
843.527	264.362
843.655	242.340
843.783	250.681
843.912	249.043
844.040	280.511
844.168	240.234
844.296	246.000
844.424	239.489
844.552	258.723
844.680	267.128
844.808	271.213
844.937	249.191
845.065	249.149
845.193	271.319
845.321	255.149
845.449	258.000
845.577	247.468
845.705	240.149
845.833	241.043
845.962	264.404
846.090	235.596
846.218	255.383
846.346	262.617
846.474	260.277
846.602	252.170
846.730	286.106
846.858	266.638
846.987	251.489
847.115	238.979
847.243	263.851
847.371	264.532
847.499	262.638
847.627	243.723
847.755	236.149
847.883	250.872
848.012	257.766
848.140	250.404
848.268	264.170
848.396	238.170
848.524	268.234
848.652	228.128
848.780	250.021
848.908	256.404
849.037	237.255
849.165	257.149
849.293	260.553
849.421	267.702
849.549	250.404
849.677	254.894
849.805	250.830
849.933	248.043
850.062	244.745
850.190	240.362
850.318	256.319
850.446	234.511
850.574	231.617
850.702	241.596
850.830	250.362
850.958	258.340
851.087	233.213
851.215	249.149
851.343	242.426
851.471	242.447
851.599	246.319
851.727	250.191
851.855	293.660
851.983	245.213
852.112	250.830
852.240	238.957
852.368	241.723
852.496	246.170
852.624	246.383
852.752	251.553
852.880	223.064
853.008	244.085
853.137	249.830
853.265	257.404
853.393	247.170
853.521	261.064
853.649	250.319
853.777	239.447
853.905	252.574
854.033	246.851
854.162	297.021
854.290	248.106
854.418	229.234
854.546	235.213
854.674	344.894
854.802	243.660
854.930	229.043
855.058	223.596
855.187	234.213
855.315	265.787
855.443	220.532
855.571	228.702
855.699	234.532
855.827	236.426
855.955	234.404
856.083	236.617
856.212	248.170
856.340	236.319
856.468	284.574
856.596	254.298
856.724	244.915
856.852	240.532
856.980	234.660
857.108	248.000
857.237	225.957
857.365	258.213
857.493	234.809
857.621	227.745
857.749	237.106
857.877	252.021
858.005	254.851
858.133	237.362
858.262	238.553
858.390	228.383
858.518	223.638
858.646	227.532
858.774	229.830
858.902	207.340
859.030	235.553
859.158	240.638
859.287	250.851
859.415	265.255
859.543	221.915
859.671	228.234
859.799	255.021
859.927	241.957
860.055	230.043
860.183	249.617
860.312	237.809
860.440	240.660
860.568	229.553
860.696	224.170
860.824	295.979
860.952	283.149
861.080	245.872
861.208	236.809
861.337	243.128
861.465	267.809
861.593	263.702
861.721	226.468
861.849	235.362
861.977	217.915
862.105	245.191
862.233	265.000
862.362	245.468
862.490	259.383
862.618	221.596
862.746	233.553
862.874	233.213
863.002	232.213
863.130	261.298
863.258	243.660
863.387	251.340
863.515	250.319
863.643	243.894
863.771	308.915
863.899	233.851
864.027	228.106
864.155	228.277
864.283	259.638
864.412	231.723
864.540	229.532
864.668	222.489
864.796	230.851
864.924	242.191
865.052	240.766
865.180	226.574
865.308	211.383
865.437	242.574
865.565	242.681
865.693	265.872
865.821	244.617
865.949	254.915
866.077	238.319
866.205	244.872
866.333	246.723
866.462	228.149
866.590	240.787
866.718	248.234
866.846	236.553
866.974	246.234
867.102	257.362
867.230	268.915
867.358	238.447
867.487	229.468
867.615	257.745
867.743	240.830
867.871	241.085
867.999	238.915
868.127	233.255
868.255	286.213
868.383	282.191
868.512	227.106
868.640	231.383
868.768	216.766
868.896	217.298
869.024	259.255
869.152	231.468
869.280	248.277
869.408	270.766
869.537	225.277
869.665	297.489
869.793	229.745
869.921	265.404
870.049	238.468
870.177	240.277
870.305	272.574
870.433	217.745
870.562	250.702
870.690	223.426
870.818	226.660
870.946	240.809
871.074	265.021
871.202	243.383
871.330	255.213
871.458	215.894
871.587	228.894
871.715	239.766
871.843	227.596
871.971	228.489
872.099	236.532
872.227	226.340
872.355	248.745
872.483	246.702
872.612	243.574
872.740	242.872
872.868	232.660
872.996	236.085
873.124	226.511
873.252	232.809
873.380	231.574
873.508	219.277
873.637	244.553
873.765	223.851
873.893	288.787
874.021	233.638
874.149	229.064
874.277	231.766
874.405	226.532
874.533	239.702
874.662	1128.277
874.790	232.596
874.918	268.426
875.046	255.064
875.174	249.149
875.302	221.213
875.430	266.298
875.558	245.915
875.687	247.064
875.815	229.021
875.943	222.511
876.071	247.000
876.199	265.596
876.327	280.383
876.455	234.213
876.583	260.532
876.712	224.468
876.840	245.574
876.968	275.128
877.096	228.830
877.224	220.596
877.352	288.319
877.480	226.723
877.608	235.660
877.737	242.532
877.865	231.191
877.993	250.064
878.121	211.830
878.249	222.702
878.377	229.851
878.505	234.000
878.633	237.213
878.762	231.426
878.890	223.043
879.018	297.979
879.146	236.809
879.274	228.149
879.402	251.851
879.530	234.532
879.658	217.638
879.787	231.957
879.915	225.383
880.043	260.404
880.171	216.489
880.299	244.830
880.427	241.851
880.555	229.128
880.683	257.596
880.812	225.617
880.940	261.064
881.068	215.404
881.196	228.170
881.324	244.617
881.452	220.660
881.580	252.681
881.708	255.596
881.837	242.043
881.965	245.681
882.093	243.872
882.221	226.106
882.349	262.638
882.477	259.362
882.605	244.383
882.733	223.128
882.862	271.085
882.990	244.064
883.118	230.489
883.246	240.149
883.374	230.426
883.502	228.617
883.630	224.106
883.758	230.000
883.887	237.766
884.015	221.191
884.143	225.128
884.271	242.128
884.399	226.170
884.527	230.809
884.655	217.064
884.783	247.553
884.912	249.000
885.040	228.723
885.168	299.404
885.296	233.000
885.424	242.532
885.552	247.809
885.680	240.574
885.808	225.021
885.937	247.234
886.065	250.702
886.193	227.830
886.321	267.574
886.449	225.064
886.577	271.021
886.705	224.021
886.833	222.702
886.962	225.979
887.090	231.809
887.218	231.064
887.346	252.638
887.474	265.298
887.602	245.255
887.730	243.191
887.858	259.745
887.987	234.213
888.115	272.340
888.243	241.596
888.371	242.064
888.499	224.426
888.627	248.553
888.755	247.447
888.883	227.362
889.012	237.787
889.140	235.234
889.268	252.298
889.396	242.404
889.524	234.000
889.652	225.128
889.780	215.298
889.908	263.787
890.037	228.723
890.165	225.511
890.293	257.766
890.421	286.340
890.549	245.532
890.677	238.702
890.805	224.468
890.933	255.787
891.062	237.383
891.190	228.936
891.318	242.383
891.446	236.255
891.574	232.064
891.702	227.723
891.830	232.915
891.958	263.638
892.087	271.681
892.215	245.468
892.343	242.617
892.471	244.681
892.599	229.957
892.727	256.638
892.855	227.064
892.983	224.489
893.112	235.064
893.240	224.894
893.368	263.532
893.496	235.766
893.624	241.213
893.752	297.298
893.880	266.043
894.008	217.170
894.137	241.170
894.265	243.426
894.393	237.957
894.521	231.511
894.649	261.745
894.777	234.617
894.905	219.170
895.033	266.745
895.162	228.362
895.290	266.191
895.418	249.128
895.546	241.085
895.674	312.362
895.802	225.021
895.930	253.255
896.058	219.447
896.187	230.170
896.315	227.915
896.443	222.830
896.571	228.553
896.699	234.745
896.827	243.064
896.955	241.298
897.083	222.745
897.212	263.511
897.340	233.426
897.468	217.000
897.596	230.021
897.724	277.170
897.852	246.170
897.980	228.809
898.108	237.489
898.237	228.319
898.365	225.043
898.493	238.638
898.621	237.596
898.749	234.936
898.877	243.745
899.005	217.723
899.133	229.319
899.262	242.489
899.390	264.383
899.518	235.681
899.646	235.553
899.774	257.830
899.902	313.298
900.030	252.064
900.158	238.319
900.287	259.766
900.415	211.681
900.543	246.851
900.671	240.043
900.799	263.553
900.927	230.894
901.055	224.085
901.183	240.660
901.312	263.298
901.440	254.213
901.568	251.255
901.696	242.468
901.824	247.234
901.952	248.702
902.080	350.660
902.208	262.383
902.337	228.298
902.465	240.234
902.593	232.489
902.721	243.213
902.849	247.000
902.977	244.000
903.105	236.830
903.233	253.128
903.362	240.319
903.490	245.170
903.618	232.702
903.746	255.574
903.874	221.489
904.002	246.532
904.130	247.574
904.258	256.106
904.387	232.298
904.515	255.766
904.643	221.064
904.771	232.596
904.899	246.851
905.027	264.234
905.155	244.383
905.283	236.894
905.412	259.638
905.540	242.936
905.668	234.702
905.796	237.106
905.924	236.553
906.052	241.851
906.180	261.383
906.308	253.681
906.437	271.851
906.565	246.255
906.693	242.426
906.821	225.149
906.949	238.851
907.077	256.638
907.205	244.021
907.333	244.787
907.462	238.191
907.590	232.702
907.718	262.702
907.846	275.426
907.974	236.298
908.102	240.660
908.230	268.298
908.358	275.787
908.487	251.106
908.615	249.660
908.743	255.957
908.871	299.426
908.999	242.830
909.127	279.213
909.255	226.851
909.383	235.298
909.512	277.489
909.640	243.468
909.768	248.064
909.896	290.894
910.024	270.830
910.152	251.234
910.280	291.574
910.408	239.702
910.537	246.234
910.665	275.362
910.793	246.681
910.921	256.064
911.049	241.702
911.177	238.213
911.305	259.340
911.433	251.000
911.562	242.787
911.690	254.745
911.818	302.468
911.946	238.489
912.074	263.532
912.202	283.915
912.330	245.043
912.458	254.511
912.587	263.511
912.715	270.936
912.843	273.340
912.971	262.809
913.099	278.128
913.227	272.043
913.355	254.830
913.483	266.851
913.612	265.021
913.740	387.468
913.868	266.128
