90pol_90_70_at_750.00nm_cut_at_984.50Y_01.dat
24.04.2023
10:51:44
cut middle at Y: 984.50
top cursor: 1008 down cursor: 961 mean of: 47 lines , 2560 datapoints
wavelength(nm)	intensity[arb. units]
585.996	17143.298
586.124	16663.489
586.252	16551.511
586.380	16579.638
586.508	16644.553
586.637	16784.553
586.765	16818.489
586.893	16878.404
587.021	16920.553
587.149	17013.128
587.277	17020.234
587.405	17114.149
587.533	17039.936
587.662	17239.489
587.790	17251.340
587.918	17209.596
588.046	17261.383
588.174	17163.723
588.302	17312.085
588.430	17277.553
588.558	17274.298
588.687	17308.809
588.815	17345.447
588.943	17337.511
589.071	17389.404
589.199	17455.957
589.327	17432.277
589.455	17379.149
589.583	17543.745
589.712	17536.106
589.840	17493.872
589.968	17509.255
590.096	17495.043
590.224	17569.170
590.352	17571.298
590.480	17580.872
590.608	17589.021
590.737	17719.170
590.865	17667.340
590.993	17628.234
591.121	17764.511
591.249	17729.638
591.377	17719.702
591.505	17797.170
591.633	17849.149
591.762	17873.915
591.890	18015.511
592.018	17914.404
592.146	17962.383
592.274	17959.532
592.402	17954.106
592.530	18067.021
592.658	18265.085
592.787	18145.064
592.915	18292.106
593.043	18218.468
593.171	18255.298
593.299	18376.638
593.427	18388.170
593.555	18442.255
593.683	18453.319
593.812	18551.660
593.940	18588.447
594.068	18616.000
594.196	18821.447
594.324	18845.617
594.452	18795.106
594.580	18957.128
594.708	18958.383
594.837	18979.809
594.965	19100.745
595.093	19152.447
595.221	19162.170
595.349	19341.979
595.477	19268.213
595.605	19333.553
595.733	19385.085
595.862	19558.787
595.990	19486.809
596.118	19508.298
596.246	19784.532
596.374	19630.915
596.502	19664.723
596.630	19744.638
596.758	19761.936
596.887	19713.872
597.015	19829.489
597.143	19919.128
597.271	19835.106
597.399	19861.745
597.527	19834.404
597.655	19950.447
597.783	19942.383
597.912	19956.085
598.040	19985.191
598.168	20024.234
598.296	20005.766
598.424	19997.447
598.552	20067.340
598.680	19988.383
598.808	20139.723
598.937	20011.745
599.065	19991.021
599.193	20057.766
599.321	20126.936
599.449	20016.340
599.577	20061.234
599.705	20149.277
599.833	20040.149
599.962	20122.319
600.090	20198.128
600.218	20237.000
600.346	20323.426
600.474	20257.043
600.602	20342.170
600.730	20340.277
600.858	20372.085
600.987	20594.617
601.115	20509.851
601.243	20646.383
601.371	20564.766
601.499	20721.085
601.627	20828.957
601.755	20764.660
601.883	20879.766
602.012	21036.660
602.140	20964.766
602.268	21180.447
602.396	21118.809
602.524	21343.021
602.652	21354.830
602.780	21382.319
602.908	21472.617
603.037	21549.617
603.165	21635.872
603.293	21677.936
603.421	21794.404
603.549	21848.596
603.677	22059.638
603.805	22040.085
603.933	22129.128
604.062	22387.426
604.190	22310.766
604.318	22390.766
604.446	22478.766
604.574	22567.298
604.702	22649.298
604.830	22761.362
604.958	22822.362
605.087	22912.936
605.215	22944.681
605.343	23038.298
605.471	23175.681
605.599	23140.255
605.727	23147.298
605.855	23309.383
605.983	23233.745
606.112	23302.064
606.240	23378.702
606.368	23362.638
606.496	23528.830
606.624	23418.277
606.752	23522.511
606.880	23631.234
607.008	23724.851
607.137	23684.468
607.265	23520.660
607.393	23608.340
607.521	23655.447
607.649	23622.319
607.777	23559.170
607.905	23617.234
608.033	23674.404
608.162	23602.362
608.290	23577.723
608.418	23564.298
608.546	23633.872
608.674	23570.362
608.802	23552.170
608.930	23488.660
609.058	23463.617
609.187	23626.149
609.315	23615.170
609.443	23548.872
609.571	23576.213
609.699	23528.085
609.827	23614.383
609.955	23518.872
610.083	23488.660
610.212	23536.319
610.340	23476.596
610.468	23543.362
610.596	23590.191
610.724	23612.319
610.852	23537.128
610.980	23561.255
611.108	23594.511
611.237	23540.723
611.365	23591.213
611.493	23576.553
611.621	23689.574
611.749	23637.255
611.877	23726.404
612.005	23741.638
612.133	23836.894
612.262	23853.489
612.390	23879.362
612.518	23955.362
612.646	23989.723
612.774	23927.404
612.902	24067.745
613.030	24228.362
613.158	24312.681
613.287	24249.766
613.415	24213.000
613.543	24178.489
613.671	24187.383
613.799	24310.979
613.927	24210.851
614.055	24235.681
614.183	24430.362
614.312	24317.213
614.440	24410.681
614.568	24409.723
614.696	24513.234
614.824	24651.255
614.952	24496.957
615.080	24586.404
615.208	24636.787
615.337	24655.532
615.465	24807.404
615.593	25000.255
615.721	25044.106
615.849	25106.596
615.977	25081.915
616.105	25081.511
616.233	25042.723
616.362	25088.957
616.490	25102.638
616.618	25155.362
616.746	25182.511
616.874	25312.830
617.002	25179.085
617.130	25241.872
617.258	25356.489
617.387	25328.085
617.515	25252.681
617.643	25275.170
617.771	25265.723
617.899	25339.660
618.027	25286.298
618.155	25347.809
618.283	25346.043
618.412	25361.426
618.540	25365.638
618.668	25323.957
618.796	25332.000
618.924	25525.128
619.052	25358.957
619.180	25370.809
619.308	25375.723
619.437	25351.830
619.565	25365.426
619.693	25302.064
619.821	25275.149
619.949	25380.851
620.077	25362.191
620.205	25381.787
620.333	25355.298
620.462	25367.979
620.590	25325.745
620.718	25317.511
620.846	25320.979
620.974	25330.936
621.102	25294.213
621.230	25213.319
621.358	25293.362
621.487	25218.191
621.615	25204.936
621.743	25296.957
621.871	25188.426
621.999	25261.532
622.127	25201.128
622.255	25205.149
622.383	25147.340
622.512	25119.064
622.640	25212.745
622.768	25017.596
622.896	25010.660
623.024	25031.298
623.152	25025.128
623.280	24991.872
623.408	24856.681
623.537	24891.489
623.665	24832.723
623.793	24857.574
623.921	24808.106
624.049	24716.043
624.177	24610.340
624.305	24672.745
624.433	24723.915
624.562	24745.447
624.690	24628.596
624.818	24668.340
624.946	24700.298
625.074	24621.957
625.202	24559.128
625.330	24523.255
625.458	24462.894
625.587	24414.191
625.715	24393.362
625.843	24534.957
625.971	24407.128
626.099	24328.574
626.227	24310.191
626.355	24241.553
626.483	24380.596
626.612	24206.787
626.740	24257.021
626.868	24196.702
626.996	24188.511
627.124	24165.915
627.252	24113.362
627.380	24180.979
627.508	24134.021
627.637	24075.936
627.765	24168.043
627.893	24167.000
628.021	24170.468
628.149	24355.064
628.277	24403.723
628.405	24346.319
628.533	24126.553
628.662	24062.106
628.790	24059.149
628.918	24051.851
629.046	24034.787
629.174	24111.894
629.302	24463.149
629.430	24173.128
629.558	24068.617
629.687	24060.787
629.815	24059.085
629.943	24058.489
630.071	24119.957
630.199	24113.021
630.327	24132.894
630.455	24086.957
630.583	24159.830
630.712	24134.723
630.840	24130.532
630.968	24101.787
631.096	24099.979
631.224	24054.255
631.352	24059.979
631.480	24031.340
631.608	24122.426
631.737	24106.574
631.865	24159.830
631.993	23998.255
632.121	24120.021
632.249	24025.128
632.377	23978.106
632.505	24017.894
632.633	23828.574
632.762	23890.000
632.890	23882.596
633.018	23714.596
633.146	23845.915
633.274	23715.702
633.402	23676.830
633.530	23607.213
633.658	23705.447
633.787	23502.596
633.915	23565.213
634.043	23431.128
634.171	23366.660
634.299	23399.915
634.427	23376.277
634.555	23295.894
634.683	23170.660
634.812	23123.000
634.940	23064.298
635.068	23007.234
635.196	22914.915
635.324	22892.681
635.452	22888.277
635.580	22747.213
635.708	22739.681
635.837	22686.319
635.965	22619.213
636.093	22508.447
636.221	22483.277
636.349	22442.106
636.477	22374.766
636.605	22435.723
636.733	22158.404
636.862	22144.723
636.990	22115.660
637.118	22046.447
637.246	22066.149
637.374	21920.383
637.502	21949.957
637.630	21806.064
637.758	21760.723
637.887	21698.298
638.015	21693.319
638.143	21580.213
638.271	21488.851
638.399	21432.277
638.527	21446.426
638.655	21393.234
638.783	21433.021
638.912	21260.638
639.040	21276.298
639.168	21257.702
639.296	21169.936
639.424	21247.723
639.552	21090.830
639.680	21246.957
639.808	21064.979
639.937	20951.894
640.065	20919.957
640.193	20933.255
640.321	20837.426
640.449	20880.596
640.577	20841.574
640.705	20733.894
640.833	20782.170
640.962	20698.106
641.090	20666.702
641.218	20617.128
641.346	20595.021
641.474	20606.766
641.602	20521.851
641.730	20555.851
641.858	20619.596
641.987	20532.277
642.115	20496.851
642.243	20490.021
642.371	20510.617
642.499	20402.319
642.627	20428.383
642.755	20434.000
642.883	20483.298
643.012	20381.383
643.140	20368.043
643.268	20348.468
643.396	20267.404
643.524	20454.936
643.652	20328.894
643.780	20243.511
643.908	20286.191
644.037	20307.128
644.165	20206.383
644.293	20129.979
644.421	20137.213
644.549	20225.936
644.677	20089.085
644.805	20086.255
644.933	20015.191
645.062	20036.255
645.190	20034.128
645.318	20036.936
645.446	19925.915
645.574	19972.106
645.702	19857.936
645.830	20049.894
645.958	19763.383
646.087	19895.830
646.215	19759.362
646.343	19900.511
646.471	19681.213
646.599	19725.553
646.727	19610.298
646.855	19590.809
646.983	19566.979
647.112	19515.787
647.240	19571.532
647.368	19422.043
647.496	19374.660
647.624	19246.723
647.752	19247.085
647.880	19261.064
648.008	19170.681
648.137	19162.574
648.265	19069.106
648.393	19079.319
648.521	18986.830
648.649	18996.957
648.777	18963.894
648.905	18796.660
649.033	18771.043
649.162	18763.404
649.290	18729.702
649.418	18580.723
649.546	18611.319
649.674	18538.596
649.802	18453.426
649.930	18617.383
650.058	18397.809
650.187	18304.915
650.315	18328.660
650.443	18310.596
650.571	18283.064
650.699	18230.170
650.827	18166.702
650.955	18152.404
651.083	18134.064
651.212	18063.851
651.340	18067.894
651.468	17990.532
651.596	17866.574
651.724	17847.830
651.852	17877.936
651.980	17824.319
652.108	17791.043
652.237	17809.383
652.365	17749.213
652.493	17656.319
652.621	17658.681
652.749	17617.043
652.877	17558.128
653.005	17514.340
653.133	17443.511
653.262	17461.170
653.390	17416.660
653.518	17436.426
653.646	17344.319
653.774	17478.723
653.902	17300.298
654.030	17276.426
654.158	17171.745
654.287	17195.319
654.415	17140.362
654.543	17145.723
654.671	17086.489
654.799	17062.723
654.927	16953.447
655.055	16971.468
655.183	16904.255
655.312	16918.383
655.440	16889.894
655.568	16789.447
655.696	16843.170
655.824	16899.809
655.952	16824.894
656.080	16659.106
656.208	16774.021
656.337	16604.489
656.465	16612.043
656.593	16520.447
656.721	16467.404
656.849	16531.830
656.977	16471.085
657.105	16397.894
657.233	16311.340
657.362	16264.106
657.490	16177.043
657.618	16208.000
657.746	16125.426
657.874	16089.957
658.002	16049.447
658.130	16026.319
658.258	15929.021
658.387	15936.809
658.515	15861.128
658.643	15809.745
658.771	15874.617
658.899	15831.787
659.027	15763.340
659.155	15752.298
659.283	15840.468
659.412	15624.596
659.540	15612.319
659.668	15518.191
659.796	15527.787
659.924	15524.660
660.052	15493.383
660.180	15426.766
660.308	15347.681
660.437	15322.000
660.565	15292.149
660.693	15258.702
660.821	15208.660
660.949	15177.702
661.077	15172.979
661.205	15115.170
661.333	15066.766
661.462	15135.787
661.590	15050.617
661.718	15177.915
661.846	15027.340
661.974	15136.298
662.102	14895.553
662.230	14978.191
662.358	14950.894
662.487	14893.213
662.615	14834.128
662.743	14786.426
662.871	14798.681
662.999	14723.277
663.127	14708.064
663.255	14848.447
663.383	14762.362
663.512	14704.638
663.640	14725.447
663.768	14703.404
663.896	14698.234
664.024	14731.979
664.152	14689.128
664.280	14687.447
664.408	14689.915
664.537	14722.319
664.665	14659.404
664.793	14566.979
664.921	14576.702
665.049	14550.553
665.177	14612.447
665.305	14556.213
665.433	14559.851
665.562	14504.532
665.690	14530.106
665.818	14679.191
665.946	14544.745
666.074	14467.830
666.202	14469.936
666.330	14526.000
666.458	14468.362
666.587	14424.298
666.715	14436.894
666.843	14437.787
666.971	14408.511
667.099	14464.660
667.227	14418.809
667.355	14382.745
667.483	14355.362
667.612	14421.957
667.740	14393.149
667.868	14479.106
667.996	14407.787
668.124	14315.957
668.252	14320.234
668.380	14341.149
668.508	14319.766
668.637	14196.574
668.765	14223.149
668.893	14259.021
669.021	14230.383
669.149	14167.255
669.277	14188.936
669.405	14118.766
669.533	14126.277
669.662	14380.894
669.790	14120.787
669.918	14124.596
670.046	14048.234
670.174	14073.128
670.302	14104.830
670.430	13978.468
670.558	14009.596
670.687	13871.702
670.815	14049.574
670.943	13840.787
671.071	13798.766
671.199	13837.723
671.327	13730.340
671.455	13759.957
671.583	13673.128
671.712	13817.979
671.840	13677.255
671.968	13559.702
672.096	13534.255
672.224	13527.723
672.352	13664.936
672.480	13486.362
672.608	13371.936
672.737	13380.128
672.865	13482.745
672.993	13292.830
673.121	13269.234
673.249	13193.745
673.377	13159.404
673.505	13134.319
673.633	13040.702
673.762	13026.468
673.890	12963.787
674.018	13214.809
674.146	12921.213
674.274	12904.660
674.402	13070.979
674.530	12822.809
674.658	12860.511
674.787	12747.723
674.915	12689.851
675.043	12762.319
675.171	12668.021
675.299	12578.553
675.427	12598.617
675.555	12553.872
675.683	12478.255
675.812	12539.851
675.940	12441.191
676.068	12396.319
676.196	12398.277
676.324	12317.404
676.452	12329.809
676.580	12274.957
676.708	12258.468
676.837	12290.021
676.965	12161.255
677.093	12134.894
677.221	12074.085
677.349	12110.766
677.477	12107.213
677.605	12004.426
677.733	12039.787
677.862	11875.553
677.990	11902.021
678.118	11859.553
678.246	11841.085
678.374	11820.043
678.502	11798.340
678.630	11778.936
678.758	11744.766
678.887	11664.149
679.015	11633.000
679.143	11627.638
679.271	11576.149
679.399	11616.064
679.527	11556.170
679.655	11523.574
679.783	11543.128
679.912	11567.298
680.040	11475.766
680.168	11476.872
680.296	11462.085
680.424	11369.170
680.552	11417.830
680.680	11449.383
680.808	11329.872
680.937	11311.532
681.065	11249.191
681.193	11273.660
681.321	11280.851
681.449	11290.596
681.577	11274.213
681.705	11270.745
681.833	11210.191
681.962	11143.340
682.090	11294.574
682.218	11170.702
682.346	11155.617
682.474	11155.532
682.602	11125.660
682.730	11114.021
682.858	11075.915
682.987	11129.809
683.115	11111.383
683.243	11049.191
683.371	11040.787
683.499	11013.936
683.627	11064.702
683.755	11080.638
683.883	11190.085
684.012	11040.255
684.140	10972.021
684.268	10966.085
684.396	11026.340
684.524	11021.702
684.652	11002.915
684.780	10970.404
684.908	10984.894
685.037	10887.277
685.165	10863.362
685.293	10828.872
685.421	10994.681
685.549	10779.468
685.677	10862.255
685.805	10984.340
685.933	10885.191
686.062	10756.426
686.190	10737.383
686.318	10772.277
686.446	10749.915
686.574	10721.383
686.702	10824.745
686.830	10708.745
686.958	10636.468
687.087	10667.362
687.215	10694.426
687.343	10580.234
687.471	10575.681
687.599	10565.106
687.727	10775.787
687.855	10581.468
687.983	10637.213
688.112	10606.723
688.240	10493.851
688.368	10493.340
688.496	10494.426
688.624	10473.191
688.752	10390.170
688.880	10442.298
689.008	10380.404
689.137	10406.702
689.265	10334.936
689.393	10268.957
689.521	10273.511
689.649	10270.085
689.777	10225.340
689.905	10211.468
690.033	10183.957
690.162	10151.660
690.290	10142.426
690.418	10103.043
690.546	10224.085
690.674	10167.319
690.802	10037.298
690.930	10079.957
691.058	10026.319
691.187	10001.106
691.315	9986.766
691.443	10000.511
691.571	9926.915
691.699	9928.213
691.827	9920.787
691.955	9850.574
692.083	9865.830
692.212	9940.234
692.340	9783.106
692.468	9790.298
692.596	9769.787
692.724	9850.489
692.852	9698.426
692.980	9744.298
693.108	9646.596
693.237	9605.979
693.365	9591.553
693.493	9539.106
693.621	9526.872
693.749	9511.191
693.877	9458.830
694.005	9572.723
694.133	9453.872
694.262	9430.681
694.390	9362.660
694.518	9381.957
694.646	9387.149
694.774	9355.638
694.902	9440.383
695.030	9333.957
695.158	9277.574
695.287	9275.255
695.415	9278.532
695.543	9162.255
695.671	9317.106
695.799	9218.851
695.927	9168.809
696.055	9126.851
696.183	9134.489
696.312	9089.702
696.440	9275.149
696.568	9167.149
696.696	9124.149
696.824	8993.681
696.952	8979.915
697.080	8980.638
697.208	8883.596
697.337	8965.085
697.465	8910.064
697.593	8823.553
697.721	8858.660
697.849	8834.340
697.977	8778.000
698.105	8806.957
698.233	8741.021
698.362	8770.638
698.490	8741.979
698.618	8729.809
698.746	8762.574
698.874	8717.426
699.002	8847.277
699.130	8623.872
699.258	8618.340
699.387	8478.085
699.515	8575.064
699.643	8482.723
699.771	8584.851
699.899	8463.468
700.027	8519.149
700.155	8416.574
700.283	8406.553
700.412	8387.851
700.540	8316.553
700.668	8350.362
700.796	8295.979
700.924	8266.128
701.052	8211.021
701.180	8285.234
701.308	8177.830
701.437	8107.043
701.565	8073.319
701.693	8061.213
701.821	8040.340
701.949	8019.830
702.077	8014.106
702.205	7959.532
702.333	7979.681
702.462	7882.128
702.590	7879.638
702.718	7861.851
702.846	7797.319
702.974	7769.745
703.102	7774.191
703.230	7844.447
703.358	7728.660
703.487	7633.447
703.615	7814.511
703.743	7576.851
703.871	7552.723
703.999	7590.319
704.127	7641.021
704.255	7437.468
704.383	7628.043
704.512	7447.745
704.640	7414.787
704.768	7310.362
704.896	7397.745
705.024	7289.213
705.152	7351.340
705.280	7246.638
705.408	7182.170
705.537	7143.106
705.665	7118.213
705.793	7070.957
705.921	7039.426
706.049	7059.277
706.177	6980.447
706.305	6988.319
706.433	7027.234
706.562	6889.319
706.690	6886.681
706.818	6833.043
706.946	7064.213
707.074	6832.660
707.202	6771.298
707.330	6815.319
707.458	6697.043
707.587	6680.404
707.715	6685.511
707.843	6694.170
707.971	6676.085
708.099	6696.638
708.227	6591.979
708.355	6505.957
708.483	6508.447
708.612	6494.149
708.740	6510.638
708.868	6516.000
708.996	6457.128
709.124	6439.255
709.252	6377.340
709.380	6343.979
709.508	6411.830
709.637	6290.064
709.765	6291.596
709.893	6299.957
710.021	6256.809
710.149	6234.191
710.277	6288.021
710.405	6164.979
710.533	6173.362
710.662	6145.936
710.790	6134.702
710.918	6140.468
711.046	6124.681
711.174	6053.872
711.302	6081.894
711.430	6137.936
711.558	5976.574
711.687	5985.511
711.815	6007.085
711.943	5987.660
712.071	5981.064
712.199	6013.702
712.327	5947.723
712.455	5867.149
712.583	5935.404
712.712	5895.872
712.840	5890.809
712.968	5854.191
713.096	5865.234
713.224	5760.809
713.352	5820.362
713.480	5749.872
713.608	5741.000
713.737	5755.617
713.865	5759.511
713.993	5789.532
714.121	5700.426
714.249	5725.681
714.377	5761.340
714.505	5672.553
714.633	5800.426
714.762	5663.234
714.890	5608.957
715.018	5629.426
715.146	5627.830
715.274	5619.043
715.402	5701.872
715.530	5591.872
715.658	5504.872
715.787	5493.489
715.915	5666.745
716.043	5486.426
716.171	5525.809
716.299	5539.787
716.427	5436.745
716.555	5423.064
716.683	5445.340
716.812	5376.894
716.940	5405.298
717.068	5338.404
717.196	5528.660
717.324	5450.511
717.452	5330.021
717.580	5295.915
717.708	5302.660
717.837	5331.213
717.965	5233.043
718.093	5276.745
718.221	5187.043
718.349	5203.191
718.477	5239.468
718.605	5208.170
718.733	5124.383
718.862	5117.766
718.990	5085.894
719.118	5103.979
719.246	5036.894
719.374	5126.957
719.502	5057.255
719.630	5169.894
719.758	4981.638
719.887	4956.085
720.015	5127.596
720.143	4914.851
720.271	4895.362
720.399	4897.915
720.527	4945.085
720.655	4918.255
720.783	4943.128
720.912	4839.553
721.040	4818.170
721.168	4767.574
721.296	4817.043
721.424	4739.362
721.552	4671.191
721.680	4657.511
721.808	4694.638
721.937	4658.617
722.065	4735.170
722.193	4727.447
722.321	4589.660
722.449	4565.915
722.577	4566.340
722.705	4506.468
722.833	4537.489
722.962	4539.128
723.090	4424.191
723.218	4379.064
723.346	4453.447
723.474	4385.340
723.602	4523.766
723.730	4419.447
723.858	4513.340
723.987	4389.340
724.115	4416.085
724.243	4291.468
724.371	4309.596
724.499	4315.362
724.627	4198.255
724.755	4182.723
724.883	4183.766
725.012	4191.723
725.140	4204.702
725.268	4172.489
725.396	4088.319
725.524	4080.532
725.652	4080.809
725.780	4046.043
725.908	4108.574
726.037	4175.447
726.165	3972.106
726.293	3945.191
726.421	3960.021
726.549	3910.702
726.677	3937.426
726.805	3890.872
726.933	3848.319
727.062	3883.979
727.190	3857.064
727.318	3793.830
727.446	3834.957
727.574	3819.766
727.702	3913.702
727.830	3761.894
727.958	3814.468
728.087	3747.234
728.215	3837.787
728.343	3772.809
728.471	3693.553
728.599	3663.340
728.727	3769.106
728.855	3638.979
728.983	3627.617
729.112	3641.021
729.240	3556.043
729.368	3615.128
729.496	3603.170
729.624	3574.319
729.752	3525.000
729.880	3566.766
730.008	3488.702
730.137	3489.872
730.265	3643.298
730.393	3438.660
730.521	3575.532
730.649	3458.915
730.777	3448.745
730.905	3401.574
731.033	3510.745
731.162	3617.319
731.290	3510.660
731.418	3606.149
731.546	3557.553
731.674	3396.638
731.802	3421.894
731.930	3322.894
732.058	3288.851
732.187	3272.894
732.315	3261.106
732.443	3230.213
732.571	3411.319
732.699	3296.128
732.827	3268.894
732.955	3209.447
733.083	3155.979
733.212	3248.064
733.340	3243.468
733.468	3213.979
733.596	3111.702
733.724	3137.957
733.852	3107.404
733.980	3096.745
734.108	3291.021
734.237	3188.915
734.365	3160.723
734.493	3085.021
734.621	3046.340
734.749	3057.043
734.877	3048.043
735.005	3073.532
735.133	3067.149
735.262	3080.468
735.390	2971.809
735.518	3139.660
735.646	2943.213
735.774	2944.638
735.902	2946.340
736.030	2889.234
736.158	2984.830
736.287	2839.511
736.415	3118.085
736.543	2890.574
736.671	2828.043
736.799	2854.277
736.927	2877.702
737.055	2822.553
737.183	2934.468
737.312	2907.489
737.440	2842.468
737.568	2796.574
737.696	2766.000
737.824	2812.596
737.952	2795.298
738.080	2748.064
738.208	2721.681
738.337	2746.809
738.465	2759.404
738.593	2677.447
738.721	2665.553
738.849	2675.787
738.977	2651.851
739.105	2714.277
739.233	2621.106
739.362	2649.489
739.490	2564.043
739.618	2594.383
739.746	2559.723
739.874	2750.511
740.002	2695.298
740.130	2647.447
740.258	2563.106
740.387	2517.085
740.515	2676.574
740.643	2532.021
740.771	2527.255
740.899	2526.766
741.027	2584.149
741.155	2615.106
741.283	2486.511
741.412	2486.894
741.540	2528.468
741.668	2543.638
741.796	2542.447
741.924	2534.106
742.052	2476.447
742.180	2506.383
742.308	2475.553
742.437	2480.745
742.565	2526.149
742.693	2516.681
742.821	2448.617
742.949	2494.298
743.077	2444.149
743.205	2417.745
743.333	2415.617
743.462	2436.702
743.590	2420.617
743.718	2381.468
743.846	2394.766
743.974	2393.064
744.102	2394.489
744.230	2393.979
744.358	2341.596
744.487	2334.702
744.615	2355.872
744.743	2331.128
744.871	2314.468
744.999	2359.234
745.127	2281.340
745.255	2278.064
745.383	2307.979
745.512	2291.085
745.640	2246.745
745.768	2256.277
745.896	2266.915
746.024	2230.872
746.152	2228.553
746.280	2232.553
746.408	2211.872
746.537	2214.426
746.665	2206.085
746.793	2200.213
746.921	2193.021
747.049	2177.574
747.177	2199.447
747.305	2176.660
747.433	2190.617
747.562	2130.872
747.690	2125.660
747.818	2132.957
747.946	2119.511
748.074	2226.681
748.202	2131.851
748.330	2106.085
748.458	2130.745
748.587	2078.511
748.715	2061.043
748.843	2091.894
748.971	2057.085
749.099	2033.404
749.227	2062.766
749.355	2016.787
749.483	2039.596
749.612	2011.106
749.740	1993.064
749.868	1994.745
749.996	1987.957
750.124	1967.809
750.252	1983.426
750.380	1994.957
750.508	1938.574
750.637	1951.702
750.765	1956.404
750.893	1943.043
751.021	1976.426
751.149	1941.553
751.277	1953.213
751.405	1964.766
751.533	1973.213
751.662	1893.532
751.790	1917.681
751.918	1866.957
752.046	1882.383
752.174	1863.000
752.302	1911.489
752.430	1852.064
752.558	1825.553
752.687	1839.809
752.815	1837.979
752.943	1781.170
753.071	1793.000
753.199	1795.234
753.327	1835.234
753.455	1794.128
753.583	1743.298
753.712	1758.298
753.840	1756.340
753.968	1735.532
754.096	1759.340
754.224	1714.149
754.352	1729.149
754.480	1710.596
754.608	1692.745
754.737	1706.170
754.865	1713.851
754.993	1694.638
755.121	1663.021
755.249	1736.511
755.377	1671.702
755.505	1668.723
755.633	1663.574
755.762	1631.106
755.890	1695.574
756.018	1681.234
756.146	1613.362
756.274	1589.319
756.402	1587.128
756.530	1610.574
756.658	1615.872
756.787	1589.872
756.915	1550.809
757.043	1578.447
757.171	1568.298
757.299	1563.766
757.427	1541.489
757.555	1522.085
757.683	1568.149
757.812	1505.936
757.940	1516.851
758.068	1490.872
758.196	1491.936
758.324	1467.681
758.452	1580.638
758.580	1463.426
758.708	1481.234
758.837	1443.255
758.965	1541.362
759.093	1428.872
759.221	1414.000
759.349	1424.255
759.477	1415.787
759.605	1408.830
759.733	1408.766
759.862	1417.340
759.990	1378.596
760.118	1392.064
760.246	1350.319
760.374	1380.553
760.502	1362.851
760.630	1369.489
760.758	1346.468
760.887	1312.191
761.015	1329.489
761.143	1322.745
761.271	1319.426
761.399	1294.894
761.527	1307.766
761.655	1294.064
761.783	1286.936
761.912	1279.766
762.040	1257.553
762.168	1304.000
762.296	1290.362
762.424	1256.319
762.552	1250.809
762.680	1307.021
762.808	1230.234
762.937	1246.574
763.065	1290.426
763.193	1265.638
763.321	1239.511
763.449	1198.894
763.577	1221.170
763.705	1221.319
763.833	1284.383
763.962	1184.298
764.090	1175.064
764.218	1170.702
764.346	1184.532
764.474	1156.979
764.602	1164.213
764.730	1145.851
764.858	1171.681
764.987	1157.894
765.115	1191.723
765.243	1133.745
765.371	1119.979
765.499	1097.830
765.627	1107.574
765.755	1101.021
765.883	1117.830
766.012	1107.702
766.140	1081.766
766.268	1096.957
766.396	1059.362
766.524	1065.511
766.652	1053.021
766.780	1055.830
766.908	1062.170
767.037	1041.787
767.165	1047.574
767.293	1101.340
767.421	1047.447
767.549	1045.106
767.677	1042.957
767.805	1020.809
767.933	1035.617
768.062	1037.681
768.190	1022.745
768.318	1001.489
768.446	1021.596
768.574	1021.702
768.702	1022.340
768.830	1001.447
768.958	988.617
769.087	970.213
769.215	980.000
769.343	968.979
769.471	945.447
769.599	996.404
769.727	968.723
769.855	966.191
769.983	960.681
770.112	936.979
770.240	935.851
770.368	941.149
770.496	926.553
770.624	929.617
770.752	935.298
770.880	953.128
771.008	932.574
771.137	914.638
771.265	958.298
771.393	923.830
771.521	907.149
771.649	884.830
771.777	893.213
771.905	897.723
772.033	896.234
772.162	915.404
772.290	876.191
772.418	930.787
772.546	905.532
772.674	868.660
772.802	874.511
772.930	916.745
773.058	859.468
773.187	884.702
773.315	852.489
773.443	854.064
773.571	864.340
773.699	860.191
773.827	828.702
773.955	870.404
774.083	862.191
774.212	839.319
774.340	856.617
774.468	832.915
774.596	836.043
774.724	822.532
774.852	811.936
774.980	817.766
775.108	810.277
775.237	811.532
775.365	819.872
775.493	808.362
775.621	808.426
775.749	796.362
775.877	784.213
776.005	795.936
776.133	803.787
776.262	813.447
776.390	767.085
776.518	810.340
776.646	773.255
776.774	791.298
776.902	775.979
777.030	777.957
777.158	779.340
777.287	781.340
777.415	743.489
777.543	750.915
777.671	748.404
777.799	743.043
777.927	729.298
778.055	737.681
778.183	736.574
778.312	711.106
778.440	736.638
778.568	747.404
778.696	717.362
778.824	735.149
778.952	722.043
779.080	710.979
779.208	736.638
779.337	720.021
779.465	715.191
779.593	709.426
779.721	714.489
779.849	697.128
779.977	686.660
780.105	680.447
780.233	698.851
780.362	712.362
780.490	719.383
780.618	678.617
780.746	680.915
780.874	652.957
781.002	664.298
781.130	655.277
781.258	646.574
781.387	656.064
781.515	672.255
781.643	651.787
781.771	691.745
781.899	651.319
782.027	685.298
782.155	658.149
782.283	650.574
782.412	629.809
782.540	643.574
782.668	664.298
782.796	620.128
782.924	658.809
783.052	613.000
783.180	643.979
783.308	614.894
783.437	612.957
783.565	624.234
783.693	619.277
783.821	614.362
783.949	598.638
784.077	628.936
784.205	606.340
784.333	642.213
784.462	575.957
784.590	613.447
784.718	607.277
784.846	581.553
784.974	610.574
785.102	630.894
785.230	584.489
785.358	627.979
785.487	586.681
785.615	594.638
785.743	581.915
785.871	585.426
785.999	570.957
786.127	561.957
786.255	576.766
786.383	604.957
786.512	594.723
786.640	572.340
786.768	576.723
786.896	557.085
787.024	556.511
787.152	556.426
787.280	562.936
787.408	548.149
787.537	569.638
787.665	552.489
787.793	574.851
787.921	561.596
788.049	548.043
788.177	527.979
788.305	535.298
788.433	567.681
788.562	521.319
788.690	520.957
788.818	542.426
788.946	544.851
789.074	517.660
789.202	542.340
789.330	538.447
789.458	521.745
789.587	576.809
789.715	526.723
789.843	517.298
789.971	513.426
790.099	505.021
790.227	518.979
790.355	506.447
790.483	537.638
790.612	512.298
790.740	512.213
790.868	529.383
790.996	514.106
791.124	508.553
791.252	500.255
791.380	514.234
791.508	507.085
791.637	500.064
791.765	491.191
791.893	498.319
792.021	494.787
792.149	490.085
792.277	498.723
792.405	470.298
792.533	513.468
792.662	465.000
792.790	477.064
792.918	492.021
793.046	473.979
793.174	497.277
793.302	488.745
793.430	481.851
793.558	465.489
793.687	472.872
793.815	467.596
793.943	491.383
794.071	483.319
794.199	463.106
794.327	467.957
794.455	539.596
794.583	554.787
794.712	448.681
794.840	459.170
794.968	462.319
795.096	487.681
795.224	449.106
795.352	451.617
795.480	483.404
795.608	465.255
795.737	463.064
795.865	451.660
795.993	431.915
796.121	434.064
796.249	439.638
796.377	454.723
796.505	432.255
796.633	425.574
796.762	430.936
796.890	446.106
797.018	448.043
797.146	431.851
797.274	427.553
797.402	434.851
797.530	441.085
797.658	424.894
797.787	465.553
797.915	417.298
798.043	443.638
798.171	415.106
798.299	432.404
798.427	411.340
798.555	421.255
798.683	388.447
798.812	420.638
798.940	475.149
799.068	414.681
799.196	448.638
799.324	405.957
799.452	421.979
799.580	406.064
799.708	458.234
799.837	394.574
799.965	399.319
800.093	419.915
800.221	382.660
800.349	400.936
800.477	397.617
800.605	413.383
800.733	409.000
800.862	401.489
800.990	439.830
801.118	382.021
801.246	386.255
801.374	399.660
801.502	383.064
801.630	372.064
801.758	387.468
801.887	408.660
802.015	375.319
802.143	373.851
802.271	398.213
802.399	375.511
802.527	365.553
802.655	405.638
802.783	424.362
802.912	375.872
803.040	376.723
803.168	358.702
803.296	350.085
803.424	380.574
803.552	370.000
803.680	372.149
803.808	371.617
803.937	375.000
804.065	358.319
804.193	369.851
804.321	412.064
804.449	346.255
804.577	351.915
804.705	365.106
804.833	386.277
804.962	350.170
805.090	350.553
805.218	368.745
805.346	368.191
805.474	366.915
805.602	381.851
805.730	353.851
805.858	341.106
805.987	356.702
806.115	356.787
806.243	355.851
806.371	378.872
806.499	453.745
806.627	489.149
806.755	454.702
806.883	358.830
807.012	342.234
807.140	379.128
807.268	362.894
807.396	364.830
807.524	333.000
807.652	349.170
807.780	402.340
807.908	337.043
808.037	381.340
808.165	364.766
808.293	348.298
808.421	384.340
808.549	325.915
808.677	331.574
808.805	370.255
808.933	339.681
809.062	355.043
809.190	396.000
809.318	333.872
809.446	337.979
809.574	388.468
809.702	328.468
809.830	341.191
809.958	341.681
810.087	334.404
810.215	362.872
810.343	346.404
810.471	341.830
810.599	329.021
810.727	332.085
810.855	313.277
810.983	317.553
811.112	331.617
811.240	323.830
811.368	333.830
811.496	373.660
811.624	338.128
811.752	314.830
811.880	329.638
812.008	316.149
812.137	342.723
812.265	306.426
812.393	332.447
812.521	353.191
812.649	321.787
812.777	318.426
812.905	353.340
813.033	312.021
813.162	314.021
813.290	317.872
813.418	329.553
813.546	310.362
813.674	312.447
813.802	323.894
813.930	303.468
814.058	303.957
814.187	325.851
814.315	311.149
814.443	321.574
814.571	328.085
814.699	337.745
814.827	312.340
814.955	304.702
815.083	333.319
815.212	334.298
815.340	341.277
815.468	302.660
815.596	313.489
815.724	315.660
815.852	303.362
815.980	300.149
816.108	301.319
816.237	297.383
816.365	316.660
816.493	313.745
816.621	297.000
816.749	315.723
816.877	312.106
817.005	319.553
817.133	327.298
817.262	301.234
817.390	301.936
817.518	299.255
817.646	311.915
817.774	297.809
817.902	288.872
818.030	296.340
818.158	338.745
818.287	314.277
818.415	288.404
818.543	300.660
818.671	319.277
818.799	284.383
818.927	304.191
819.055	305.426
819.183	289.574
819.312	297.830
819.440	287.234
819.568	290.511
819.696	302.277
819.824	313.064
819.952	283.723
820.080	303.277
820.208	288.809
820.337	279.170
820.465	320.957
820.593	289.064
820.721	286.532
820.849	295.979
820.977	285.872
821.105	292.915
821.233	274.000
821.362	310.574
821.490	275.894
821.618	282.404
821.746	278.702
821.874	290.957
822.002	278.872
822.130	285.468
822.258	271.128
822.387	275.617
822.515	297.021
822.643	291.447
822.771	295.000
822.899	283.532
823.027	323.128
823.155	273.872
823.283	267.362
823.412	286.064
823.540	279.979
823.668	324.234
823.796	276.681
823.924	305.128
824.052	304.979
824.180	287.362
824.308	269.000
824.437	266.426
824.565	272.532
824.693	295.064
824.821	286.979
824.949	285.702
825.077	281.979
825.205	315.191
825.333	297.957
825.462	305.213
825.590	276.511
825.718	305.766
825.846	276.021
825.974	264.511
826.102	274.596
826.230	271.277
826.358	277.043
826.487	268.383
826.615	307.574
826.743	259.468
826.871	286.979
826.999	328.851
827.127	273.170
827.255	280.213
827.383	260.702
827.512	292.532
827.640	256.660
827.768	257.936
827.896	278.404
828.024	265.170
828.152	273.915
828.280	269.723
828.408	263.574
828.537	262.596
828.665	278.809
828.793	273.149
828.921	254.170
829.049	283.830
829.177	260.638
829.305	256.277
829.433	268.489
829.562	270.979
829.690	256.681
829.818	289.894
829.946	257.128
830.074	278.872
830.202	280.872
830.330	287.979
830.458	306.936
830.587	259.489
830.715	270.957
830.843	260.596
830.971	273.149
831.099	289.851
831.227	252.617
831.355	263.702
831.483	268.404
831.612	290.851
831.740	258.468
831.868	265.234
831.996	264.830
832.124	255.426
832.252	246.426
832.380	281.191
832.508	315.021
832.637	262.511
832.765	262.638
832.893	298.170
833.021	255.766
833.149	244.234
833.277	263.617
833.405	253.362
833.533	244.404
833.662	260.894
833.790	254.234
833.918	263.915
834.046	298.617
834.174	263.426
834.302	257.085
834.430	247.277
834.558	259.340
834.687	267.213
834.815	244.872
834.943	259.553
835.071	264.000
835.199	258.638
835.327	281.149
835.455	252.489
835.583	289.043
835.712	244.213
835.840	249.553
835.968	256.596
836.096	306.213
836.224	267.660
836.352	244.149
836.480	263.787
836.608	268.638
836.737	252.489
836.865	240.149
836.993	256.915
837.121	261.681
837.249	241.213
837.377	277.745
837.505	258.426
837.633	257.128
837.762	253.000
837.890	285.426
838.018	280.085
838.146	292.489
838.274	261.511
838.402	272.489
838.530	252.617
838.658	238.021
838.787	255.362
838.915	257.532
839.043	227.532
839.171	272.574
839.299	236.851
839.427	256.170
839.555	247.340
839.683	267.894
839.812	282.702
839.940	237.128
840.068	263.915
840.196	259.745
840.324	249.809
840.452	250.064
840.580	287.660
840.708	250.957
840.837	279.383
840.965	238.596
841.093	256.511
841.221	244.894
841.349	249.191
841.477	269.064
841.605	255.277
841.733	245.213
841.862	260.213
841.990	297.234
842.118	231.298
842.246	244.809
842.374	252.809
842.502	230.702
842.630	268.021
842.758	272.745
842.887	242.596
843.015	249.660
843.143	271.128
843.271	250.574
843.399	284.766
843.527	252.596
843.655	233.830
843.783	246.532
843.912	239.319
844.040	274.553
844.168	235.064
844.296	234.638
844.424	231.191
844.552	257.872
844.680	255.362
844.808	267.766
844.937	244.957
845.065	244.511
845.193	260.745
845.321	245.426
845.449	248.830
845.577	245.574
845.705	238.681
845.833	236.340
845.962	252.553
846.090	234.085
846.218	251.277
846.346	257.021
846.474	258.979
846.602	251.149
846.730	275.936
846.858	253.340
846.987	243.362
847.115	237.000
847.243	262.915
847.371	259.447
847.499	259.234
847.627	244.979
847.755	237.000
847.883	247.851
848.012	251.766
848.140	247.170
848.268	251.532
848.396	231.830
848.524	260.064
848.652	223.915
848.780	237.617
848.908	246.106
849.037	244.809
849.165	261.830
849.293	255.319
849.421	260.979
849.549	246.596
849.677	253.277
849.805	250.128
849.933	247.021
850.062	239.170
850.190	242.511
850.318	247.894
850.446	236.426
850.574	231.915
850.702	242.340
850.830	244.340
850.958	253.021
851.087	228.511
851.215	248.745
851.343	238.574
851.471	239.149
851.599	243.234
851.727	239.872
851.855	293.553
851.983	246.681
852.112	241.617
852.240	231.511
852.368	240.894
852.496	236.915
852.624	240.894
852.752	238.702
852.880	220.319
853.008	241.128
853.137	248.489
853.265	250.319
853.393	240.213
853.521	257.617
853.649	250.787
853.777	233.617
853.905	248.574
854.033	232.957
854.162	293.128
854.290	238.298
854.418	224.660
854.546	229.681
854.674	341.085
854.802	244.000
854.930	230.426
855.058	219.553
855.187	228.532
855.315	255.085
855.443	221.489
855.571	224.872
855.699	231.809
855.827	245.468
855.955	237.638
856.083	235.894
856.212	247.298
856.340	229.957
856.468	280.404
856.596	256.170
856.724	245.660
856.852	237.809
856.980	235.064
857.108	245.830
857.237	218.872
857.365	258.511
857.493	234.979
857.621	227.553
857.749	239.979
857.877	247.936
858.005	253.298
858.133	240.468
858.262	233.872
858.390	227.213
858.518	220.532
858.646	222.638
858.774	224.298
858.902	210.021
859.030	232.596
859.158	242.404
859.287	247.404
859.415	256.702
859.543	222.277
859.671	223.404
859.799	248.957
859.927	234.468
860.055	234.191
860.183	239.213
860.312	234.021
860.440	233.872
860.568	229.957
860.696	222.447
860.824	300.319
860.952	280.574
861.080	235.596
861.208	233.064
861.337	239.872
861.465	265.362
861.593	262.383
861.721	234.489
861.849	231.574
861.977	223.745
862.105	246.511
862.233	259.936
862.362	244.106
862.490	252.702
862.618	225.532
862.746	231.936
862.874	227.894
863.002	226.894
863.130	259.085
863.258	234.043
863.387	244.128
863.515	251.000
863.643	241.362
863.771	300.191
863.899	235.511
864.027	225.298
864.155	227.234
864.283	254.745
864.412	229.468
864.540	223.681
864.668	225.979
864.796	228.298
864.924	239.340
865.052	236.872
865.180	224.681
865.308	211.532
865.437	234.255
865.565	233.872
865.693	261.064
865.821	237.383
865.949	250.234
866.077	237.915
866.205	240.894
866.333	249.468
866.462	226.404
866.590	240.638
866.718	244.064
866.846	232.106
866.974	243.532
867.102	252.149
867.230	261.596
867.358	236.787
867.487	230.702
867.615	255.277
867.743	238.532
867.871	240.191
867.999	232.447
868.127	234.787
868.255	281.426
868.383	274.809
868.512	231.064
868.640	227.617
868.768	219.511
868.896	218.638
869.024	257.745
869.152	228.745
869.280	235.766
869.408	263.213
869.537	224.766
869.665	295.894
869.793	225.511
869.921	263.830
870.049	241.745
870.177	244.532
870.305	275.000
870.433	219.723
870.562	246.596
870.690	220.106
870.818	221.149
870.946	244.532
871.074	271.383
871.202	240.936
871.330	255.000
871.458	213.106
871.587	229.298
871.715	242.447
871.843	214.468
871.971	218.447
872.099	230.532
872.227	223.745
872.355	242.872
872.483	242.255
872.612	244.362
872.740	245.404
872.868	228.362
872.996	235.745
873.124	223.234
873.252	231.128
873.380	227.085
873.508	219.702
873.637	244.936
873.765	227.979
873.893	277.319
874.021	235.809
874.149	222.170
874.277	233.638
874.405	229.851
874.533	236.362
874.662	1135.830
874.790	228.383
874.918	267.170
875.046	254.787
875.174	248.234
875.302	214.149
875.430	261.574
875.558	244.277
875.687	251.085
875.815	230.447
875.943	224.681
876.071	238.851
876.199	255.915
876.327	270.894
876.455	231.149
876.583	247.936
876.712	226.149
876.840	246.915
876.968	274.723
877.096	221.298
877.224	217.957
877.352	281.064
877.480	222.872
877.608	240.830
877.737	248.213
877.865	234.872
877.993	246.277
878.121	213.894
878.249	220.723
878.377	230.170
878.505	236.170
878.633	232.532
878.762	228.000
878.890	221.064
879.018	288.213
879.146	237.596
879.274	224.319
879.402	245.681
879.530	238.149
879.658	221.021
879.787	227.319
879.915	220.319
880.043	258.830
880.171	215.936
880.299	248.787
880.427	240.021
880.555	237.617
880.683	258.532
880.812	218.979
880.940	261.128
881.068	222.766
881.196	224.000
881.324	244.660
881.452	220.787
881.580	249.468
881.708	249.766
881.837	243.936
881.965	234.383
882.093	249.447
882.221	224.106
882.349	268.149
882.477	252.447
882.605	238.085
882.733	227.681
882.862	267.532
882.990	239.660
883.118	230.383
883.246	237.277
883.374	228.277
883.502	221.830
883.630	216.532
883.758	235.383
883.887	241.021
884.015	218.532
884.143	227.468
884.271	235.170
884.399	224.298
884.527	229.043
884.655	212.702
884.783	242.574
884.912	254.404
885.040	226.447
885.168	288.979
885.296	220.957
885.424	239.128
885.552	250.957
885.680	236.723
885.808	226.532
885.937	239.383
886.065	246.043
886.193	227.617
886.321	268.915
886.449	224.596
886.577	279.894
886.705	228.723
886.833	220.745
886.962	223.149
887.090	230.872
887.218	235.979
887.346	249.787
887.474	264.383
887.602	240.362
887.730	241.383
887.858	256.681
887.987	228.596
888.115	265.255
888.243	234.787
888.371	237.894
888.499	221.383
888.627	244.340
888.755	246.043
888.883	233.553
889.012	227.234
889.140	231.702
889.268	254.191
889.396	247.149
889.524	228.617
889.652	225.915
889.780	221.532
889.908	261.468
890.037	227.553
890.165	225.021
890.293	244.489
890.421	282.915
890.549	243.298
890.677	234.447
890.805	222.383
890.933	254.383
891.062	235.532
891.190	227.936
891.318	242.234
891.446	232.745
891.574	222.532
891.702	223.489
891.830	232.681
891.958	268.149
892.087	263.468
892.215	239.426
892.343	242.404
892.471	242.787
892.599	234.489
892.727	249.489
892.855	227.830
892.983	219.723
893.112	233.489
893.240	221.468
893.368	262.447
893.496	232.809
893.624	231.681
893.752	291.872
893.880	270.362
894.008	211.043
894.137	240.638
894.265	238.021
894.393	234.213
894.521	234.043
894.649	256.064
894.777	234.787
894.905	220.596
895.033	261.553
895.162	231.574
895.290	260.660
895.418	243.511
895.546	247.638
895.674	313.319
895.802	228.745
895.930	248.255
896.058	215.660
896.187	222.149
896.315	226.936
896.443	227.936
896.571	229.596
896.699	232.383
896.827	240.128
896.955	242.319
897.083	224.723
897.212	272.745
897.340	227.766
897.468	219.851
897.596	230.511
897.724	264.809
897.852	238.553
897.980	230.447
898.108	230.043
898.237	226.894
898.365	218.745
898.493	234.447
898.621	233.617
898.749	233.255
898.877	240.170
899.005	215.340
899.133	232.106
899.262	245.447
899.390	264.553
899.518	237.830
899.646	228.362
899.774	251.489
899.902	314.213
900.030	243.681
900.158	234.043
900.287	254.213
900.415	215.915
900.543	243.766
900.671	236.404
900.799	261.511
900.927	230.170
901.055	222.277
901.183	239.277
901.312	247.468
901.440	246.638
901.568	247.809
901.696	233.979
901.824	243.681
901.952	244.447
902.080	348.809
902.208	265.000
902.337	226.319
902.465	236.234
902.593	234.426
902.721	240.128
902.849	240.149
902.977	243.766
903.105	231.234
903.233	251.043
903.362	229.106
903.490	241.723
903.618	228.064
903.746	254.532
903.874	226.213
904.002	242.766
904.130	243.043
904.258	256.638
904.387	225.617
904.515	250.574
904.643	220.766
904.771	235.702
904.899	247.404
905.027	262.660
905.155	244.362
905.283	241.319
905.412	259.638
905.540	239.957
905.668	235.872
905.796	236.830
905.924	240.532
906.052	238.553
906.180	253.638
906.308	248.277
906.437	266.191
906.565	236.170
906.693	243.404
906.821	229.511
906.949	235.340
907.077	249.702
907.205	245.638
907.333	244.660
907.462	232.447
907.590	233.106
907.718	254.234
907.846	278.872
907.974	234.617
908.102	237.766
908.230	270.255
908.358	275.787
908.487	244.191
908.615	247.511
908.743	251.170
908.871	295.021
908.999	240.021
909.127	267.489
909.255	225.000
909.383	235.234
909.512	276.979
909.640	240.532
909.768	245.702
909.896	286.043
910.024	262.489
910.152	254.702
910.280	285.766
910.408	239.404
910.537	246.851
910.665	272.596
910.793	247.723
910.921	259.319
911.049	235.085
911.177	230.149
911.305	258.723
911.433	249.617
911.562	248.936
911.690	242.404
911.818	299.660
911.946	240.894
912.074	260.936
912.202	285.149
912.330	238.702
912.458	252.149
912.587	259.660
912.715	268.106
912.843	277.915
912.971	261.723
913.099	274.660
913.227	269.617
913.355	251.447
913.483	270.723
913.612	266.723
913.740	386.383
913.868	267.681
