90pol_90_140_at_750.00nm_cut_at_984.50Y_01.dat
24.04.2023
10:46:58
cut middle at Y: 984.50
top cursor: 1008 down cursor: 961 mean of: 47 lines , 2560 datapoints
wavelength(nm)	intensity[arb. units]
585.996	21097.468
586.124	20579.106
586.252	20324.468
586.380	20457.362
586.508	20481.043
586.637	20521.170
586.765	20639.489
586.893	20659.957
587.021	20644.468
587.149	20722.064
587.277	20706.383
587.405	20849.723
587.533	20814.553
587.662	21003.894
587.790	20853.340
587.918	20760.532
588.046	20874.745
588.174	20819.681
588.302	20956.064
588.430	20798.468
588.558	20771.319
588.687	20899.894
588.815	20876.064
588.943	20870.106
589.071	20898.170
589.199	20865.894
589.327	20891.404
589.455	20809.298
589.583	20931.766
589.712	20962.064
589.840	20890.191
589.968	20895.660
590.096	20911.830
590.224	20924.234
590.352	20926.298
590.480	20917.894
590.608	20893.426
590.737	20984.043
590.865	20991.851
590.993	20886.191
591.121	21011.979
591.249	20959.809
591.377	20949.489
591.505	20986.191
591.633	20956.851
591.762	20991.149
591.890	21154.936
592.018	20990.277
592.146	21023.851
592.274	21039.702
592.402	21078.851
592.530	21084.255
592.658	21340.915
592.787	21202.511
592.915	21404.532
593.043	21279.213
593.171	21330.787
593.299	21354.085
593.427	21438.043
593.555	21587.319
593.683	21488.660
593.812	21680.106
593.940	21616.404
594.068	21760.979
594.196	21794.851
594.324	21890.149
594.452	21900.021
594.580	21950.596
594.708	22046.638
594.837	22033.596
594.965	22159.489
595.093	22253.128
595.221	22191.447
595.349	22462.574
595.477	22426.191
595.605	22435.234
595.733	22470.894
595.862	22716.766
595.990	22608.872
596.118	22584.298
596.246	22881.128
596.374	22806.064
596.502	22867.191
596.630	22818.915
596.758	22915.638
596.887	22881.000
597.015	22916.596
597.143	23011.596
597.271	22994.340
597.399	23063.021
597.527	22990.787
597.655	23031.851
597.783	22969.255
597.912	23068.638
598.040	23055.128
598.168	23107.277
598.296	23091.213
598.424	23057.128
598.552	23092.234
598.680	23060.149
598.808	23141.723
598.937	23023.660
599.065	22985.426
599.193	23020.447
599.321	23110.213
599.449	22941.766
599.577	22980.702
599.705	23041.596
599.833	22973.191
599.962	23003.213
600.090	23078.957
600.218	23080.106
600.346	23157.617
600.474	23107.936
600.602	23124.213
600.730	23212.553
600.858	23290.255
600.987	23387.277
601.115	23292.277
601.243	23439.596
601.371	23430.574
601.499	23462.149
601.627	23594.894
601.755	23563.426
601.883	23759.489
602.012	23817.064
602.140	23828.043
602.268	23974.979
602.396	23957.957
602.524	24106.340
602.652	24161.191
602.780	24241.447
602.908	24310.532
603.037	24416.170
603.165	24458.723
603.293	24575.894
603.421	24662.191
603.549	24741.851
603.677	24926.957
603.805	24932.660
603.933	25064.447
604.062	25257.574
604.190	25202.085
604.318	25357.638
604.446	25438.511
604.574	25521.064
604.702	25720.000
604.830	25735.574
604.958	25847.191
605.087	25978.511
605.215	25948.085
605.343	26059.596
605.471	26187.830
605.599	26290.872
605.727	26311.936
605.855	26404.638
605.983	26428.404
606.112	26474.340
606.240	26490.383
606.368	26582.830
606.496	26783.000
606.624	26580.532
606.752	26700.106
606.880	26775.596
607.008	26934.957
607.137	26883.000
607.265	26697.681
607.393	26765.723
607.521	26856.340
607.649	26833.702
607.777	26800.447
607.905	26825.830
608.033	26736.447
608.162	26777.872
608.290	26732.489
608.418	26758.596
608.546	26750.021
608.674	26725.936
608.802	26738.957
608.930	26710.915
609.058	26700.255
609.187	26843.681
609.315	26731.702
609.443	26777.468
609.571	26797.979
609.699	26759.149
609.827	26767.745
609.955	26706.149
610.083	26649.000
610.212	26733.511
610.340	26638.894
610.468	26838.745
610.596	26799.532
610.724	26834.468
610.852	26806.596
610.980	26791.766
611.108	26857.681
611.237	26803.638
611.365	26854.447
611.493	26850.447
611.621	26987.277
611.749	26983.191
611.877	27116.809
612.005	27087.702
612.133	27275.085
612.262	27365.660
612.390	27380.745
612.518	27394.489
612.646	27600.766
612.774	27588.000
612.902	27714.043
613.030	27959.149
613.158	28072.234
613.287	28149.468
613.415	28119.511
613.543	28020.936
613.671	28013.787
613.799	28171.298
613.927	28205.638
614.055	28124.851
614.183	28440.191
614.312	28365.298
614.440	28446.021
614.568	28518.000
614.696	28573.596
614.824	28848.617
614.952	28785.298
615.080	28933.660
615.208	29019.064
615.337	29097.404
615.465	29196.553
615.593	29364.787
615.721	29541.553
615.849	29651.851
615.977	29678.213
616.105	29648.404
616.233	29613.426
616.362	29753.617
616.490	29786.553
616.618	29782.894
616.746	29840.979
616.874	29901.191
617.002	29877.128
617.130	29899.681
617.258	30090.043
617.387	29997.128
617.515	30015.660
617.643	30006.915
617.771	29939.872
617.899	30004.319
618.027	29995.702
618.155	30019.936
618.283	30080.064
618.412	30127.915
618.540	30200.809
618.668	30103.340
618.796	30207.319
618.924	30303.787
619.052	30197.021
619.180	30194.979
619.308	30284.447
619.437	30211.872
619.565	30209.191
619.693	30126.532
619.821	30151.255
619.949	30213.000
620.077	30290.660
620.205	30211.128
620.333	30255.660
620.462	30321.702
620.590	30311.489
620.718	30164.936
620.846	30310.277
620.974	30239.872
621.102	30284.979
621.230	30281.085
621.358	30397.128
621.487	30290.362
621.615	30260.000
621.743	30363.894
621.871	30277.128
621.999	30398.596
622.127	30277.574
622.255	30345.340
622.383	30316.319
622.512	30258.043
622.640	30356.106
622.768	30226.170
622.896	30246.596
623.024	30225.532
623.152	30351.702
623.280	30358.404
623.408	30296.106
623.537	30335.809
623.665	30264.319
623.793	30368.766
623.921	30308.638
624.049	30237.957
624.177	30241.894
624.305	30315.426
624.433	30262.000
624.562	30403.383
624.690	30352.830
624.818	30298.298
624.946	30443.362
625.074	30233.128
625.202	30178.489
625.330	30261.617
625.458	30325.702
625.587	30223.702
625.715	30253.043
625.843	30342.128
625.971	30221.489
626.099	30226.064
626.227	30291.489
626.355	30182.170
626.483	30297.787
626.612	30140.766
626.740	30224.191
626.868	30349.915
626.996	30281.745
627.124	30267.915
627.252	30317.085
627.380	30333.638
627.508	30407.957
627.637	30211.277
627.765	30319.596
627.893	30450.872
628.021	30432.085
628.149	30733.766
628.277	30813.660
628.405	30795.404
628.533	30530.191
628.662	30636.787
628.790	30616.723
628.918	30719.660
629.046	30681.872
629.174	30928.383
629.302	31151.340
629.430	31011.277
629.558	30973.872
629.687	30939.872
629.815	31018.426
629.943	31064.489
630.071	31110.957
630.199	31170.064
630.327	31127.234
630.455	31262.681
630.583	31238.574
630.712	31288.638
630.840	31366.234
630.968	31396.021
631.096	31417.553
631.224	31372.149
631.352	31418.532
631.480	31430.723
631.608	31518.787
631.737	31596.021
631.865	31649.809
631.993	31601.043
632.121	31702.043
632.249	31635.447
632.377	31594.234
632.505	31630.213
632.633	31456.979
632.762	31550.915
632.890	31658.170
633.018	31436.468
633.146	31623.149
633.274	31333.489
633.402	31479.213
633.530	31342.766
633.658	31518.149
633.787	31265.043
633.915	31368.809
634.043	31264.021
634.171	31258.362
634.299	31145.936
634.427	31198.936
634.555	31119.255
634.683	31077.489
634.812	31093.404
634.940	31047.255
635.068	30937.106
635.196	30886.128
635.324	30895.638
635.452	30852.170
635.580	30793.000
635.708	30693.830
635.837	30720.043
635.965	30581.872
636.093	30425.574
636.221	30443.617
636.349	30411.553
636.477	30380.957
636.605	30404.043
636.733	30166.426
636.862	30114.277
636.990	30141.319
637.118	30071.234
637.246	30099.660
637.374	29969.043
637.502	30018.085
637.630	29918.277
637.758	29786.426
637.887	29764.362
638.015	29739.723
638.143	29675.298
638.271	29709.787
638.399	29560.574
638.527	29605.085
638.655	29599.894
638.783	29646.596
638.912	29522.596
639.040	29476.298
639.168	29538.979
639.296	29402.553
639.424	29551.000
639.552	29419.702
639.680	29530.617
639.808	29428.553
639.937	29332.511
640.065	29262.362
640.193	29404.809
640.321	29343.638
640.449	29409.128
640.577	29447.766
640.705	29412.915
640.833	29346.447
640.962	29266.553
641.090	29352.681
641.218	29373.277
641.346	29429.404
641.474	29459.213
641.602	29371.255
641.730	29406.532
641.858	29440.362
641.987	29398.723
642.115	29384.957
642.243	29459.787
642.371	29471.745
642.499	29467.660
642.627	29494.191
642.755	29458.277
642.883	29430.043
643.012	29435.979
643.140	29487.681
643.268	29475.298
643.396	29589.617
643.524	29605.234
643.652	29550.362
643.780	29469.213
643.908	29542.894
644.037	29648.723
644.165	29595.362
644.293	29519.170
644.421	29661.170
644.549	29596.702
644.677	29516.702
644.805	29557.277
644.933	29444.830
645.062	29540.830
645.190	29530.277
645.318	29543.106
645.446	29559.106
645.574	29472.745
645.702	29390.574
645.830	29547.957
645.958	29381.638
646.087	29570.191
646.215	29304.723
646.343	29531.298
646.471	29316.362
646.599	29287.511
646.727	29254.596
646.855	29166.766
646.983	29226.319
647.112	29201.213
647.240	29281.128
647.368	29087.702
647.496	29104.915
647.624	28989.043
647.752	28919.872
647.880	28948.255
648.008	28991.277
648.137	28949.489
648.265	28816.213
648.393	28779.191
648.521	28732.532
648.649	28613.064
648.777	28674.979
648.905	28550.128
649.033	28481.340
649.162	28481.915
649.290	28364.043
649.418	28236.936
649.546	28253.383
649.674	28162.000
649.802	28035.809
649.930	28212.979
650.058	27978.404
650.187	27938.979
650.315	27920.149
650.443	27819.702
650.571	27851.617
650.699	27830.681
650.827	27713.702
650.955	27644.915
651.083	27683.915
651.212	27622.234
651.340	27564.383
651.468	27530.191
651.596	27393.851
651.724	27299.511
651.852	27393.064
651.980	27282.787
652.108	27298.936
652.237	27232.170
652.365	27238.340
652.493	27052.128
652.621	27056.574
652.749	27131.234
652.877	26901.915
653.005	26927.340
653.133	26929.979
653.262	26876.660
653.390	26790.915
653.518	26859.468
653.646	26660.617
653.774	26802.170
653.902	26578.319
654.030	26611.894
654.158	26542.681
654.287	26519.745
654.415	26452.532
654.543	26459.489
654.671	26349.894
654.799	26330.149
654.927	26235.277
655.055	26191.277
655.183	26204.894
655.312	26213.766
655.440	26150.894
655.568	26018.638
655.696	25994.574
655.824	26108.298
655.952	25983.660
656.080	25852.106
656.208	25907.936
656.337	25702.766
656.465	25736.021
656.593	25614.298
656.721	25530.021
656.849	25550.000
656.977	25421.489
657.105	25282.787
657.233	25255.511
657.362	25226.702
657.490	25084.723
657.618	25142.851
657.746	25028.766
657.874	24950.340
658.002	24902.596
658.130	24842.638
658.258	24761.404
658.387	24755.851
658.515	24633.894
658.643	24571.234
658.771	24536.021
658.899	24507.298
659.027	24475.511
659.155	24472.894
659.283	24466.170
659.412	24264.149
659.540	24299.277
659.668	24098.745
659.796	24145.745
659.924	24137.766
660.052	24014.149
660.180	23963.681
660.308	23923.787
660.437	23881.489
660.565	23798.511
660.693	23726.872
660.821	23755.255
660.949	23691.660
661.077	23670.702
661.205	23640.830
661.333	23606.936
661.462	23657.936
661.590	23510.660
661.718	23568.532
661.846	23395.149
661.974	23490.128
662.102	23259.426
662.230	23296.830
662.358	23216.234
662.487	23161.957
662.615	23079.043
662.743	23048.149
662.871	23089.936
662.999	23045.553
663.127	22929.745
663.255	23062.085
663.383	22993.660
663.512	22891.915
663.640	22955.128
663.768	22871.319
663.896	22985.851
664.024	22931.128
664.152	22860.021
664.280	22956.574
664.408	22797.979
664.537	22815.894
664.665	22726.362
664.793	22696.213
664.921	22597.170
665.049	22638.106
665.177	22648.255
665.305	22630.426
665.433	22563.638
665.562	22488.447
665.690	22539.319
665.818	22621.745
665.946	22426.277
666.074	22408.043
666.202	22359.894
666.330	22414.319
666.458	22346.532
666.587	22233.277
666.715	22220.213
666.843	22239.426
666.971	22181.404
667.099	22115.447
667.227	22160.830
667.355	22110.979
667.483	22103.489
667.612	22088.447
667.740	21996.213
667.868	22074.021
667.996	21971.213
668.124	21903.106
668.252	21891.745
668.380	21784.170
668.508	21825.596
668.637	21804.426
668.765	21711.426
668.893	21667.745
669.021	21559.085
669.149	21577.128
669.277	21611.638
669.405	21496.043
669.533	21451.383
669.662	21673.894
669.790	21489.702
669.918	21463.915
670.046	21238.128
670.174	21306.128
670.302	21211.596
670.430	21096.702
670.558	21142.553
670.687	21033.532
670.815	21098.149
670.943	20920.936
671.071	20875.894
671.199	20767.809
671.327	20756.191
671.455	20723.638
671.583	20646.468
671.712	20704.298
671.840	20595.191
671.968	20498.617
672.096	20447.532
672.224	20356.255
672.352	20418.766
672.480	20237.915
672.608	20106.511
672.737	20068.149
672.865	20116.851
672.993	19928.723
673.121	19851.043
673.249	19858.277
673.377	19667.766
673.505	19623.064
673.633	19512.362
673.762	19439.702
673.890	19393.574
674.018	19578.809
674.146	19272.809
674.274	19239.340
674.402	19328.447
674.530	19057.468
674.658	18928.809
674.787	18937.936
674.915	18855.745
675.043	18885.170
675.171	18796.170
675.299	18618.830
675.427	18633.851
675.555	18453.915
675.683	18429.191
675.812	18370.979
675.940	18331.553
676.068	18265.191
676.196	18204.468
676.324	18092.255
676.452	18010.915
676.580	17899.511
676.708	17870.809
676.837	17881.702
676.965	17753.277
677.093	17727.745
677.221	17579.255
677.349	17620.149
677.477	17551.702
677.605	17395.021
677.733	17411.638
677.862	17251.979
677.990	17172.170
678.118	17169.191
678.246	17062.468
678.374	17090.574
678.502	16998.915
678.630	16953.872
678.758	16878.021
678.887	16804.532
679.015	16788.809
679.143	16694.532
679.271	16631.957
679.399	16616.511
679.527	16629.638
679.655	16476.064
679.783	16510.128
679.912	16475.447
680.040	16369.915
680.168	16284.915
680.296	16205.468
680.424	16200.660
680.552	16156.277
680.680	16183.851
680.808	16072.851
680.937	15984.362
681.065	15952.766
681.193	15964.766
681.321	15935.511
681.449	15836.809
681.577	15862.766
681.705	15820.723
681.833	15728.745
681.962	15621.404
682.090	15806.766
682.218	15651.894
682.346	15597.213
682.474	15555.383
682.602	15526.553
682.730	15529.277
682.858	15410.383
682.987	15468.894
683.115	15454.000
683.243	15331.723
683.371	15270.319
683.499	15310.915
683.627	15335.723
683.755	15324.681
683.883	15366.830
684.012	15218.426
684.140	15156.745
684.268	15093.745
684.396	15106.234
684.524	15115.723
684.652	15135.702
684.780	15050.723
684.908	15079.979
685.037	14930.532
685.165	14839.383
685.293	14835.596
685.421	14864.085
685.549	14725.915
685.677	14721.426
685.805	14869.170
685.933	14700.000
686.062	14560.894
686.190	14535.681
686.318	14543.404
686.446	14502.766
686.574	14395.085
686.702	14501.277
686.830	14304.957
686.958	14274.702
687.087	14266.638
687.215	14249.660
687.343	14191.638
687.471	14125.340
687.599	14057.277
687.727	14218.553
687.855	13984.617
687.983	14000.468
688.112	14088.362
688.240	13861.574
688.368	13805.149
688.496	13827.894
688.624	13820.043
688.752	13719.745
688.880	13697.191
689.008	13714.106
689.137	13615.553
689.265	13517.787
689.393	13469.532
689.521	13420.723
689.649	13457.936
689.777	13366.745
689.905	13312.745
690.033	13248.149
690.162	13220.489
690.290	13141.298
690.418	13130.234
690.546	13195.787
690.674	13150.447
690.802	12953.745
690.930	12940.809
691.058	12951.574
691.187	12855.234
691.315	12804.298
691.443	12864.553
691.571	12744.511
691.699	12722.957
691.827	12737.043
691.955	12584.851
692.083	12553.085
692.212	12668.915
692.340	12489.936
692.468	12509.830
692.596	12455.745
692.724	12473.489
692.852	12347.638
692.980	12371.574
693.108	12294.000
693.237	12160.745
693.365	12132.979
693.493	12046.936
693.621	12051.340
693.749	12009.957
693.877	11967.766
694.005	12027.106
694.133	11893.404
694.262	11921.021
694.390	11813.574
694.518	11784.532
694.646	11750.128
694.774	11688.553
694.902	11785.511
695.030	11666.064
695.158	11510.128
695.287	11557.149
695.415	11514.489
695.543	11423.532
695.671	11504.383
695.799	11387.064
695.927	11355.234
696.055	11306.000
696.183	11247.426
696.312	11199.404
696.440	11352.426
696.568	11175.383
696.696	11154.617
696.824	10973.766
696.952	11002.766
697.080	10982.234
697.208	10877.809
697.337	10926.957
697.465	10814.255
697.593	10734.830
697.721	10714.404
697.849	10701.936
697.977	10641.319
698.105	10641.213
698.233	10500.979
698.362	10519.745
698.490	10481.766
698.618	10476.149
698.746	10524.404
698.874	10384.979
699.002	10548.511
699.130	10287.638
699.258	10318.702
699.387	10155.596
699.515	10198.511
699.643	10146.426
699.771	10206.340
699.899	10048.596
700.027	10038.149
700.155	9968.021
700.283	9941.021
700.412	9924.340
700.540	9837.830
700.668	9789.766
700.796	9697.830
700.924	9752.489
701.052	9698.638
701.180	9762.362
701.308	9598.532
701.437	9483.745
701.565	9498.170
701.693	9426.851
701.821	9396.596
701.949	9353.362
702.077	9338.681
702.205	9277.702
702.333	9238.511
702.462	9179.681
702.590	9153.255
702.718	9070.702
702.846	9049.511
702.974	9044.830
703.102	8981.553
703.230	9026.681
703.358	8945.064
703.487	8811.064
703.615	8936.574
703.743	8686.915
703.871	8684.766
703.999	8660.404
704.127	8725.766
704.255	8461.447
704.383	8650.532
704.512	8453.213
704.640	8442.894
704.768	8275.404
704.896	8383.447
705.024	8243.149
705.152	8293.255
705.280	8188.468
705.408	8129.404
705.537	8093.340
705.665	7999.553
705.793	7972.915
705.921	7914.574
706.049	7936.170
706.177	7829.170
706.305	7859.511
706.433	7860.660
706.562	7769.936
706.690	7701.553
706.818	7628.702
706.946	7825.468
707.074	7597.298
707.202	7527.383
707.330	7583.915
707.458	7481.213
707.587	7389.149
707.715	7418.277
707.843	7419.511
707.971	7367.553
708.099	7368.000
708.227	7244.277
708.355	7197.340
708.483	7189.106
708.612	7089.915
708.740	7151.298
708.868	7175.553
708.996	7062.532
709.124	7107.809
709.252	6986.745
709.380	6917.830
709.508	6953.787
709.637	6874.596
709.765	6858.468
709.893	6851.851
710.021	6842.000
710.149	6799.043
710.277	6855.553
710.405	6696.596
710.533	6715.191
710.662	6671.000
710.790	6646.660
710.918	6674.787
711.046	6674.362
711.174	6570.894
711.302	6611.468
711.430	6674.298
711.558	6474.489
711.687	6476.234
711.815	6484.809
711.943	6449.021
712.071	6443.000
712.199	6428.340
712.327	6410.489
712.455	6310.957
712.583	6337.553
712.712	6277.191
712.840	6273.489
712.968	6217.851
713.096	6263.213
713.224	6137.191
713.352	6194.149
713.480	6114.787
713.608	6132.170
713.737	6113.447
713.865	6107.511
713.993	6116.766
714.121	6000.447
714.249	6001.511
714.377	6062.000
714.505	5984.511
714.633	6102.468
714.762	5990.830
714.890	5886.809
715.018	5921.170
715.146	5908.957
715.274	5894.979
715.402	6004.340
715.530	5863.149
715.658	5752.638
715.787	5760.277
715.915	5889.255
716.043	5716.957
716.171	5808.617
716.299	5810.660
716.427	5696.404
716.555	5645.170
716.683	5617.851
716.812	5599.681
716.940	5619.936
717.068	5503.638
717.196	5716.766
717.324	5624.532
717.452	5533.638
717.580	5484.723
717.708	5477.702
717.837	5459.894
717.965	5403.319
718.093	5415.702
718.221	5311.106
718.349	5378.426
718.477	5390.830
718.605	5365.681
718.733	5268.298
718.862	5271.000
718.990	5236.255
719.118	5236.021
719.246	5162.319
719.374	5231.128
719.502	5189.298
719.630	5283.851
719.758	5094.298
719.887	5053.298
720.015	5216.702
720.143	4994.787
720.271	4975.404
720.399	5002.574
720.527	5024.681
720.655	4998.043
720.783	5009.617
720.912	4911.064
721.040	4891.830
721.168	4799.915
721.296	4883.936
721.424	4803.191
721.552	4727.787
721.680	4737.936
721.808	4768.447
721.937	4695.149
722.065	4767.574
722.193	4797.745
722.321	4643.170
722.449	4633.936
722.577	4602.979
722.705	4537.340
722.833	4564.319
722.962	4558.362
723.090	4459.553
723.218	4427.957
723.346	4446.234
723.474	4403.319
723.602	4551.766
723.730	4482.170
723.858	4547.511
723.987	4417.553
724.115	4415.298
724.243	4314.191
724.371	4335.468
724.499	4338.234
724.627	4219.468
724.755	4219.872
724.883	4201.213
725.012	4184.553
725.140	4219.298
725.268	4148.957
725.396	4075.574
725.524	4103.723
725.652	4087.681
725.780	4066.957
725.908	4135.277
726.037	4162.617
726.165	3943.702
726.293	3953.894
726.421	3961.298
726.549	3915.532
726.677	3899.574
726.805	3891.404
726.933	3860.021
727.062	3894.702
727.190	3835.872
727.318	3776.043
727.446	3781.319
727.574	3765.511
727.702	3876.851
727.830	3720.894
727.958	3792.000
728.087	3703.745
728.215	3794.128
728.343	3780.809
728.471	3647.340
728.599	3642.106
728.727	3727.000
728.855	3566.000
728.983	3585.617
729.112	3574.830
729.240	3548.383
729.368	3572.660
729.496	3524.085
729.624	3517.638
729.752	3476.851
729.880	3476.957
730.008	3439.894
730.137	3419.106
730.265	3603.255
730.393	3379.085
730.521	3504.021
730.649	3394.766
730.777	3384.851
730.905	3320.787
731.033	3417.596
731.162	3515.426
731.290	3421.404
731.418	3549.660
731.546	3462.064
731.674	3307.638
731.802	3334.191
731.930	3231.234
732.058	3185.532
732.187	3209.170
732.315	3195.596
732.443	3127.830
732.571	3293.489
732.699	3223.234
732.827	3165.277
732.955	3120.362
733.083	3088.000
733.212	3172.468
733.340	3110.681
733.468	3130.021
733.596	3044.681
733.724	3059.979
733.852	3019.064
733.980	3018.298
734.108	3207.149
734.237	3076.043
734.365	3087.723
734.493	2980.617
734.621	2938.362
734.749	2945.340
734.877	2964.681
735.005	2986.638
735.133	2986.936
735.262	2989.000
735.390	2856.915
735.518	3038.213
735.646	2821.660
735.774	2822.979
735.902	2823.064
736.030	2758.809
736.158	2872.170
736.287	2736.489
736.415	2992.213
736.543	2757.660
736.671	2712.149
736.799	2741.532
736.927	2772.489
737.055	2728.149
737.183	2824.000
737.312	2787.702
737.440	2711.404
737.568	2698.021
737.696	2655.936
737.824	2686.064
737.952	2673.340
738.080	2624.489
738.208	2633.255
738.337	2637.000
738.465	2623.404
738.593	2579.574
738.721	2581.170
738.849	2581.298
738.977	2563.660
739.105	2611.915
739.233	2555.681
739.362	2570.064
739.490	2504.149
739.618	2525.596
739.746	2532.660
739.874	2627.404
740.002	2571.957
740.130	2536.787
740.258	2514.894
740.387	2482.000
740.515	2503.362
740.643	2486.957
740.771	2499.511
740.899	2483.681
741.027	2477.872
741.155	2505.511
741.283	2442.702
741.412	2432.638
741.540	2449.340
741.668	2411.000
741.796	2413.872
741.924	2442.851
742.052	2398.043
742.180	2383.574
742.308	2378.213
742.437	2354.851
742.565	2398.787
742.693	2385.638
742.821	2331.468
742.949	2392.489
743.077	2356.489
743.205	2295.660
743.333	2333.851
743.462	2330.894
743.590	2306.511
743.718	2273.957
743.846	2308.447
743.974	2264.830
744.102	2255.468
744.230	2271.043
744.358	2223.660
744.487	2236.894
744.615	2246.426
744.743	2229.915
744.871	2192.894
744.999	2243.511
745.127	2167.128
745.255	2166.213
745.383	2195.681
745.512	2173.213
745.640	2142.468
745.768	2152.021
745.896	2170.851
746.024	2147.021
746.152	2117.106
746.280	2125.894
746.408	2124.660
746.537	2088.064
746.665	2112.085
746.793	2090.532
746.921	2051.702
747.049	2079.340
747.177	2077.851
747.305	2081.128
747.433	2100.894
747.562	2039.617
747.690	2023.957
747.818	2029.617
747.946	2011.447
748.074	2115.191
748.202	2028.170
748.330	1988.191
748.458	2018.702
748.587	1967.915
748.715	1966.021
748.843	1977.426
748.971	1951.128
749.099	1936.170
749.227	1981.872
749.355	1931.596
749.483	1928.298
749.612	1911.957
749.740	1891.532
749.868	1885.660
749.996	1897.766
750.124	1881.723
750.252	1870.319
750.380	1879.957
750.508	1835.489
750.637	1830.255
750.765	1859.660
750.893	1824.851
751.021	1833.660
751.149	1834.574
751.277	1840.511
751.405	1834.766
751.533	1887.340
751.662	1795.404
751.790	1812.085
751.918	1779.298
752.046	1765.447
752.174	1759.191
752.302	1792.383
752.430	1752.149
752.558	1734.000
752.687	1715.872
752.815	1708.277
752.943	1722.511
753.071	1677.681
753.199	1694.957
753.327	1726.000
753.455	1688.745
753.583	1647.149
753.712	1650.149
753.840	1651.340
753.968	1627.064
754.096	1639.894
754.224	1608.617
754.352	1613.255
754.480	1619.362
754.608	1586.745
754.737	1605.106
754.865	1633.213
754.993	1557.894
755.121	1580.447
755.249	1636.064
755.377	1579.000
755.505	1557.234
755.633	1570.723
755.762	1529.277
755.890	1613.085
756.018	1571.638
756.146	1522.766
756.274	1506.426
756.402	1500.851
756.530	1506.979
756.658	1517.894
756.787	1503.617
756.915	1446.191
757.043	1481.149
757.171	1473.340
757.299	1455.532
757.427	1439.106
757.555	1446.298
757.683	1491.255
757.812	1411.511
757.940	1410.660
758.068	1405.383
758.196	1382.702
758.324	1370.362
758.452	1491.489
758.580	1362.383
758.708	1389.660
758.837	1349.468
758.965	1447.787
759.093	1337.426
759.221	1321.723
759.349	1336.851
759.477	1321.106
759.605	1315.660
759.733	1306.830
759.862	1311.234
759.990	1287.809
760.118	1289.957
760.246	1253.787
760.374	1281.702
760.502	1277.979
760.630	1261.957
760.758	1258.426
760.887	1225.383
761.015	1236.000
761.143	1209.596
761.271	1214.809
761.399	1201.043
761.527	1211.489
761.655	1194.596
761.783	1188.766
761.912	1184.872
762.040	1169.638
762.168	1205.872
762.296	1152.106
762.424	1163.106
762.552	1169.128
762.680	1220.255
762.808	1114.532
762.937	1148.723
763.065	1189.915
763.193	1176.596
763.321	1119.128
763.449	1085.085
763.577	1101.340
763.705	1085.213
763.833	1168.468
763.962	1082.532
764.090	1075.170
764.218	1092.681
764.346	1080.468
764.474	1042.234
764.602	1062.085
764.730	1034.894
764.858	1051.340
764.987	1042.787
765.115	1071.021
765.243	1021.106
765.371	1001.681
765.499	990.298
765.627	993.404
765.755	971.553
765.883	1009.234
766.012	977.766
766.140	972.872
766.268	964.000
766.396	951.809
766.524	960.468
766.652	944.362
766.780	949.149
766.908	941.872
767.037	948.426
767.165	953.362
767.293	994.340
767.421	919.170
767.549	922.043
767.677	923.766
767.805	898.894
767.933	911.979
768.062	933.362
768.190	901.617
768.318	876.319
768.446	915.149
768.574	932.021
768.702	893.915
768.830	865.000
768.958	872.723
769.087	865.128
769.215	866.851
769.343	860.574
769.471	829.574
769.599	883.936
769.727	868.043
769.855	848.723
769.983	827.574
770.112	825.170
770.240	825.809
770.368	816.085
770.496	809.596
770.624	820.787
770.752	832.809
770.880	858.043
771.008	810.468
771.137	812.617
771.265	850.106
771.393	813.532
771.521	806.830
771.649	799.404
771.777	802.404
771.905	791.468
772.033	801.532
772.162	810.787
772.290	780.149
772.418	828.574
772.546	804.404
772.674	768.766
772.802	797.191
772.930	826.596
773.058	766.191
773.187	783.723
773.315	756.830
773.443	783.277
773.571	763.894
773.699	771.894
773.827	745.596
773.955	799.638
774.083	780.957
774.212	751.596
774.340	776.574
774.468	742.936
774.596	742.681
774.724	751.085
774.852	744.638
774.980	730.106
775.108	739.851
775.237	736.723
775.365	737.043
775.493	736.617
775.621	720.574
775.749	732.596
775.877	723.872
776.005	719.596
776.133	747.128
776.262	727.489
776.390	700.106
776.518	753.681
776.646	692.872
776.774	713.085
776.902	708.468
777.030	706.426
777.158	703.064
777.287	705.809
777.415	674.064
777.543	683.128
777.671	681.362
777.799	676.766
777.927	684.894
778.055	696.809
778.183	688.723
778.312	653.787
778.440	670.574
778.568	672.596
778.696	671.447
778.824	678.128
778.952	670.340
779.080	659.064
779.208	687.830
779.337	682.021
779.465	669.809
779.593	665.979
779.721	671.298
779.849	656.894
779.977	643.702
780.105	625.723
780.233	664.128
780.362	670.213
780.490	676.447
780.618	635.574
780.746	644.383
780.874	628.872
781.002	633.872
781.130	628.362
781.258	610.702
781.387	627.383
781.515	635.745
781.643	621.404
781.771	657.766
781.899	608.553
782.027	653.723
782.155	625.191
782.283	611.553
782.412	592.809
782.540	604.489
782.668	627.043
782.796	588.957
782.924	630.468
783.052	588.426
783.180	630.894
783.308	585.894
783.437	586.617
783.565	600.426
783.693	586.532
783.821	590.979
783.949	567.404
784.077	602.319
784.205	583.426
784.333	618.128
784.462	555.872
784.590	587.468
784.718	580.809
784.846	555.830
784.974	585.298
785.102	606.872
785.230	566.000
785.358	614.957
785.487	568.979
785.615	567.851
785.743	563.106
785.871	567.255
785.999	552.511
786.127	537.000
786.255	561.830
786.383	580.426
786.512	576.064
786.640	550.319
786.768	567.426
786.896	536.213
787.024	541.872
787.152	537.362
787.280	551.787
787.408	533.851
787.537	567.468
787.665	534.085
787.793	563.532
787.921	551.043
788.049	538.809
788.177	527.128
788.305	525.234
788.433	556.638
788.562	513.681
788.690	521.170
788.818	523.277
788.946	527.106
789.074	519.809
789.202	532.532
789.330	534.574
789.458	510.277
789.587	561.617
789.715	510.277
789.843	510.383
789.971	514.255
790.099	496.723
790.227	527.830
790.355	500.766
790.483	526.043
790.612	499.936
790.740	504.660
790.868	521.255
790.996	511.468
791.124	501.532
791.252	500.383
791.380	511.319
791.508	512.170
791.637	494.787
791.765	488.532
791.893	487.723
792.021	491.915
792.149	493.787
792.277	495.787
792.405	472.809
792.533	507.064
792.662	465.064
792.790	476.511
792.918	497.702
793.046	483.106
793.174	495.915
793.302	485.894
793.430	475.128
793.558	466.617
793.687	480.447
793.815	463.021
793.943	502.255
794.071	491.532
794.199	463.617
794.327	473.191
794.455	541.340
794.583	557.936
794.712	464.787
794.840	464.213
794.968	474.426
795.096	480.745
795.224	453.128
795.352	455.340
795.480	494.234
795.608	468.362
795.737	461.872
795.865	448.468
795.993	444.809
796.121	432.532
796.249	453.426
796.377	459.213
796.505	439.617
796.633	437.532
796.762	444.638
796.890	447.894
797.018	458.872
797.146	434.064
797.274	426.574
797.402	442.723
797.530	444.128
797.658	439.468
797.787	476.447
797.915	432.234
798.043	446.298
798.171	428.532
798.299	444.660
798.427	424.553
798.555	432.638
798.683	406.362
798.812	431.638
798.940	489.170
799.068	419.936
799.196	463.617
799.324	416.191
799.452	429.255
799.580	399.809
799.708	463.511
799.837	406.979
799.965	412.894
800.093	425.872
800.221	397.447
800.349	416.447
800.477	408.362
800.605	417.596
800.733	422.106
800.862	419.723
800.990	448.766
801.118	392.681
801.246	396.447
801.374	409.255
801.502	403.468
801.630	395.362
801.758	404.255
801.887	423.830
802.015	394.021
802.143	390.468
802.271	416.340
802.399	394.723
802.527	388.617
802.655	419.574
802.783	437.936
802.912	398.553
803.040	390.234
803.168	372.085
803.296	364.255
803.424	401.915
803.552	375.277
803.680	389.255
803.808	392.426
803.937	388.426
804.065	370.340
804.193	378.064
804.321	426.872
804.449	364.511
804.577	373.532
804.705	384.234
804.833	397.319
804.962	363.617
805.090	373.660
805.218	381.617
805.346	380.170
805.474	377.511
805.602	394.404
805.730	379.404
805.858	357.660
805.987	369.894
806.115	379.957
806.243	372.468
806.371	396.404
806.499	473.213
806.627	496.021
806.755	462.957
806.883	380.404
807.012	366.340
807.140	384.362
807.268	376.617
807.396	387.660
807.524	347.298
807.652	367.617
807.780	423.915
807.908	352.723
808.037	403.298
808.165	381.851
808.293	356.787
808.421	398.872
808.549	359.021
808.677	348.596
808.805	391.617
808.933	358.149
809.062	372.872
809.190	415.191
809.318	355.383
809.446	346.340
809.574	408.191
809.702	339.681
809.830	360.362
809.958	364.255
810.087	348.638
810.215	368.383
810.343	358.319
810.471	357.383
810.599	347.745
810.727	346.511
810.855	328.000
810.983	335.894
811.112	358.064
811.240	344.213
811.368	351.489
811.496	392.277
811.624	350.532
811.752	338.894
811.880	345.532
812.008	335.809
812.137	356.234
812.265	323.319
812.393	352.809
812.521	357.745
812.649	334.426
812.777	334.638
812.905	369.298
813.033	324.787
813.162	327.021
813.290	328.766
813.418	345.255
813.546	330.596
813.674	331.638
813.802	339.596
813.930	316.851
814.058	328.298
814.187	338.702
814.315	324.617
814.443	333.681
814.571	346.489
814.699	350.149
814.827	325.979
814.955	329.426
815.083	353.404
815.212	350.532
815.340	361.340
815.468	324.128
815.596	326.064
815.724	336.234
815.852	319.553
815.980	322.936
816.108	321.447
816.237	310.702
816.365	331.149
816.493	337.766
816.621	318.745
816.749	331.809
816.877	329.809
817.005	343.872
817.133	333.255
817.262	308.766
817.390	326.830
817.518	314.894
817.646	328.830
817.774	304.511
817.902	313.617
818.030	307.830
818.158	354.043
818.287	334.106
818.415	308.936
818.543	316.638
818.671	331.553
818.799	305.723
818.927	323.106
819.055	321.532
819.183	308.851
819.312	314.766
819.440	302.149
819.568	304.128
819.696	316.723
819.824	328.596
819.952	309.830
820.080	315.383
820.208	312.021
820.337	303.021
820.465	348.638
820.593	310.936
820.721	303.532
820.849	310.766
820.977	305.574
821.105	316.681
821.233	290.894
821.362	326.000
821.490	294.851
821.618	304.936
821.746	294.787
821.874	307.681
822.002	304.340
822.130	301.894
822.258	287.787
822.387	293.000
822.515	312.681
822.643	306.383
822.771	307.489
822.899	300.894
823.027	340.915
823.155	291.340
823.283	287.894
823.412	304.106
823.540	296.383
823.668	345.255
823.796	288.532
823.924	320.511
824.052	324.745
824.180	306.489
824.308	282.021
824.437	287.106
824.565	288.149
824.693	306.426
824.821	305.660
824.949	300.936
825.077	301.064
825.205	328.426
825.333	308.021
825.462	308.872
825.590	296.319
825.718	316.809
825.846	298.723
825.974	280.872
826.102	281.234
826.230	288.340
826.358	292.383
826.487	284.128
826.615	322.915
826.743	285.191
826.871	310.404
826.999	337.426
827.127	294.213
827.255	296.213
827.383	280.766
827.512	308.894
827.640	285.723
827.768	279.404
827.896	295.255
828.024	286.596
828.152	292.809
828.280	286.277
828.408	281.447
828.537	282.532
828.665	294.979
828.793	293.213
828.921	271.638
829.049	304.957
829.177	273.340
829.305	272.809
829.433	286.681
829.562	298.574
829.690	275.915
829.818	304.702
829.946	279.340
830.074	289.234
830.202	299.702
830.330	305.574
830.458	323.787
830.587	281.681
830.715	284.787
830.843	281.596
830.971	292.681
831.099	304.787
831.227	279.021
831.355	267.915
831.483	291.894
831.612	317.638
831.740	290.553
831.868	291.915
831.996	275.596
832.124	274.213
832.252	260.447
832.380	289.106
832.508	332.787
832.637	274.532
832.765	280.702
832.893	313.638
833.021	268.149
833.149	269.255
833.277	276.319
833.405	275.213
833.533	268.596
833.662	277.043
833.790	269.489
833.918	283.404
834.046	312.936
834.174	280.064
834.302	272.383
834.430	265.681
834.558	272.915
834.687	285.383
834.815	266.638
834.943	276.128
835.071	279.000
835.199	279.957
835.327	295.340
835.455	264.617
835.583	306.383
835.712	262.638
835.840	272.426
835.968	274.617
836.096	323.787
836.224	282.872
836.352	260.128
836.480	278.404
836.608	278.872
836.737	262.000
836.865	259.319
836.993	283.851
837.121	278.362
837.249	263.979
837.377	283.702
837.505	285.638
837.633	266.894
837.762	268.638
837.890	309.255
838.018	300.532
838.146	306.553
838.274	283.234
838.402	294.213
838.530	269.532
838.658	255.447
838.787	275.723
838.915	275.064
839.043	250.915
839.171	292.851
839.299	256.957
839.427	267.915
839.555	270.085
839.683	285.234
839.812	292.255
839.940	253.553
840.068	277.681
840.196	276.404
840.324	263.787
840.452	274.170
840.580	301.915
840.708	275.277
840.837	295.532
840.965	257.723
841.093	269.553
841.221	263.511
841.349	270.872
841.477	285.915
841.605	273.128
841.733	261.319
841.862	269.277
841.990	323.936
842.118	254.979
842.246	259.468
842.374	268.340
842.502	249.043
842.630	284.064
842.758	289.021
842.887	254.660
843.015	266.447
843.143	282.809
843.271	266.660
843.399	300.830
843.527	270.340
843.655	247.957
843.783	261.957
843.912	253.191
844.040	294.915
844.168	252.617
844.296	255.255
844.424	254.000
844.552	269.319
844.680	275.617
844.808	278.213
844.937	262.404
845.065	255.170
845.193	283.298
845.321	265.553
845.449	260.085
845.577	259.447
845.705	261.596
845.833	252.787
845.962	277.319
846.090	251.660
846.218	265.766
846.346	265.957
846.474	274.723
846.602	260.894
846.730	290.340
846.858	272.511
846.987	260.894
847.115	245.830
847.243	279.191
847.371	275.319
847.499	271.957
847.627	249.596
847.755	252.830
847.883	269.362
848.012	278.936
848.140	257.064
848.268	280.043
848.396	251.106
848.524	273.383
848.652	235.851
848.780	252.298
848.908	265.936
849.037	257.170
849.165	271.170
849.293	267.915
849.421	276.064
849.549	262.000
849.677	260.681
849.805	262.915
849.933	262.574
850.062	253.000
850.190	258.574
850.318	265.489
850.446	252.340
850.574	249.426
850.702	255.085
850.830	255.957
850.958	274.362
851.087	246.894
851.215	267.489
851.343	254.787
851.471	251.957
851.599	259.255
851.727	259.362
851.855	309.170
851.983	267.447
852.112	255.511
852.240	252.702
852.368	253.787
852.496	257.872
852.624	254.149
852.752	259.128
852.880	231.809
853.008	258.021
853.137	259.383
853.265	265.766
853.393	253.255
853.521	265.170
853.649	264.574
853.777	246.319
853.905	267.766
854.033	254.447
854.162	308.617
854.290	259.149
854.418	236.809
854.546	248.553
854.674	362.340
854.802	255.957
854.930	245.191
855.058	237.660
855.187	239.000
855.315	275.851
855.443	238.745
855.571	240.511
855.699	247.979
855.827	250.702
855.955	250.064
856.083	253.872
856.212	256.766
856.340	241.617
856.468	296.702
856.596	271.277
856.724	254.745
856.852	249.596
856.980	247.383
857.108	260.447
857.237	238.383
857.365	270.809
857.493	246.809
857.621	236.234
857.749	253.851
857.877	261.277
858.005	269.723
858.133	242.766
858.262	247.106
858.390	245.149
858.518	231.298
858.646	241.532
858.774	246.511
858.902	221.617
859.030	242.383
859.158	252.213
859.287	255.447
859.415	275.553
859.543	243.426
859.671	236.830
859.799	268.872
859.927	249.830
860.055	247.319
860.183	254.872
860.312	244.064
860.440	254.085
860.568	246.085
860.696	232.574
860.824	317.170
860.952	300.723
861.080	244.000
861.208	255.362
861.337	250.383
861.465	281.383
861.593	271.574
861.721	245.319
861.849	248.383
861.977	234.638
862.105	254.638
862.233	267.447
862.362	259.340
862.490	268.511
862.618	236.404
862.746	250.191
862.874	238.447
863.002	237.638
863.130	271.745
863.258	250.319
863.387	253.234
863.515	268.511
863.643	251.723
863.771	316.660
863.899	243.766
864.027	238.702
864.155	235.809
864.283	266.915
864.412	245.043
864.540	239.149
864.668	238.383
864.796	241.723
864.924	247.915
865.052	254.319
865.180	240.809
865.308	225.000
865.437	251.851
865.565	255.191
865.693	276.638
865.821	251.149
865.949	264.085
866.077	247.936
866.205	254.170
866.333	261.255
866.462	234.660
866.590	249.000
866.718	259.894
866.846	239.957
866.974	260.553
867.102	255.362
867.230	274.447
867.358	250.277
867.487	241.617
867.615	262.681
867.743	250.809
867.871	250.660
867.999	251.000
868.127	242.638
868.255	291.064
868.383	300.617
868.512	241.340
868.640	239.511
868.768	231.170
868.896	228.617
869.024	276.809
869.152	246.383
869.280	254.894
869.408	273.596
869.537	241.957
869.665	309.340
869.793	237.277
869.921	279.936
870.049	250.979
870.177	256.532
870.305	283.277
870.433	230.128
870.562	260.723
870.690	234.681
870.818	241.106
870.946	253.277
871.074	278.809
871.202	257.660
871.330	264.532
871.458	222.489
871.587	243.043
871.715	252.277
871.843	238.426
871.971	237.936
872.099	246.617
872.227	240.851
872.355	258.319
872.483	255.447
872.612	253.106
872.740	255.702
872.868	242.426
872.996	246.447
873.124	237.574
873.252	243.787
873.380	242.745
873.508	235.000
873.637	256.064
873.765	246.638
873.893	287.574
874.021	252.723
874.149	235.404
874.277	248.936
874.405	234.298
874.533	242.894
874.662	1136.234
874.790	249.213
874.918	279.936
875.046	267.532
875.174	255.872
875.302	228.511
875.430	284.553
875.558	256.915
875.687	260.809
875.815	236.085
875.943	234.277
876.071	257.064
876.199	271.936
876.327	281.149
876.455	241.979
876.583	262.277
876.712	241.298
876.840	263.340
876.968	282.383
877.096	239.553
877.224	235.000
877.352	294.404
877.480	235.553
877.608	253.383
877.737	256.957
877.865	240.787
877.993	264.000
878.121	225.787
878.249	229.872
878.377	239.553
878.505	247.064
878.633	245.574
878.762	237.723
878.890	236.574
879.018	301.489
879.146	245.319
879.274	225.660
879.402	261.851
879.530	251.340
879.658	227.489
879.787	244.681
879.915	237.255
880.043	273.170
880.171	232.319
880.299	258.894
880.427	249.426
880.555	244.021
880.683	264.617
880.812	228.830
880.940	276.319
881.068	227.255
881.196	238.936
881.324	251.681
881.452	228.681
881.580	264.277
881.708	261.447
881.837	254.915
881.965	258.362
882.093	248.553
882.221	233.213
882.349	274.957
882.477	270.894
882.605	253.532
882.733	230.702
882.862	277.064
882.990	257.851
883.118	236.532
883.246	244.255
883.374	242.319
883.502	242.681
883.630	227.468
883.758	241.766
883.887	248.681
884.015	229.213
884.143	236.106
884.271	257.766
884.399	235.596
884.527	244.170
884.655	224.723
884.783	255.468
884.912	262.681
885.040	232.362
885.168	301.936
885.296	241.957
885.424	248.021
885.552	259.064
885.680	245.468
885.808	231.809
885.937	251.277
886.065	256.191
886.193	235.064
886.321	277.383
886.449	229.894
886.577	281.766
886.705	237.915
886.833	231.043
886.962	234.319
887.090	243.766
887.218	240.128
887.346	264.702
887.474	267.915
887.602	250.404
887.730	249.404
887.858	267.128
887.987	235.894
888.115	275.170
888.243	249.447
888.371	249.766
888.499	233.532
888.627	256.277
888.755	256.447
888.883	231.170
889.012	235.660
889.140	244.681
889.268	259.468
889.396	259.447
889.524	241.745
889.652	236.064
889.780	226.532
889.908	271.447
890.037	237.532
890.165	238.553
890.293	258.617
890.421	298.851
890.549	253.426
890.677	250.021
890.805	231.915
890.933	267.809
891.062	250.362
891.190	234.915
891.318	252.936
891.446	248.085
891.574	237.596
891.702	240.532
891.830	237.000
891.958	275.319
892.087	280.000
892.215	251.383
892.343	250.681
892.471	262.915
892.599	240.340
892.727	258.851
892.855	236.277
892.983	234.787
893.112	240.383
893.240	237.872
893.368	269.809
893.496	247.213
893.624	240.298
893.752	305.404
893.880	283.979
894.008	225.404
894.137	253.298
894.265	242.638
894.393	245.936
894.521	243.191
894.649	254.979
894.777	244.404
894.905	227.362
895.033	275.489
895.162	233.617
895.290	279.872
895.418	253.191
895.546	257.511
895.674	319.872
895.802	232.426
895.930	259.532
896.058	221.574
896.187	233.234
896.315	238.426
896.443	235.064
896.571	240.277
896.699	237.851
896.827	250.851
896.955	256.617
897.083	239.298
897.212	275.830
897.340	242.340
897.468	226.702
897.596	233.362
897.724	281.191
897.852	249.043
897.980	242.574
898.108	248.021
898.237	236.106
898.365	226.511
898.493	244.553
898.621	240.277
898.749	236.043
898.877	252.915
899.005	220.298
899.133	238.532
899.262	254.340
899.390	275.404
899.518	240.000
899.646	244.383
899.774	260.936
899.902	320.340
900.030	261.915
900.158	250.574
900.287	257.298
900.415	223.957
900.543	249.255
900.671	241.596
900.799	264.447
900.927	233.574
901.055	234.574
901.183	246.128
901.312	260.915
901.440	258.745
901.568	256.298
901.696	242.979
901.824	258.638
901.952	256.894
902.080	352.404
902.208	271.362
902.337	239.957
902.465	252.787
902.593	245.085
902.721	250.064
902.849	257.511
902.977	257.787
903.105	239.574
903.233	260.872
903.362	240.064
903.490	256.149
903.618	242.702
903.746	261.957
903.874	233.000
904.002	249.532
904.130	257.638
904.258	261.681
904.387	239.957
904.515	259.660
904.643	224.851
904.771	243.383
904.899	253.191
905.027	263.170
905.155	252.638
905.283	248.532
905.412	265.787
905.540	247.745
905.668	243.745
905.796	237.021
905.924	237.787
906.052	246.404
906.180	263.426
906.308	256.723
906.437	278.723
906.565	244.915
906.693	249.468
906.821	229.617
906.949	245.851
907.077	261.809
907.205	252.894
907.333	258.362
907.462	241.957
907.590	236.936
907.718	270.851
907.846	282.447
907.974	243.085
908.102	251.638
908.230	273.255
908.358	280.915
908.487	255.894
908.615	249.745
908.743	253.383
908.871	305.809
908.999	240.128
909.127	278.574
909.255	237.319
909.383	235.936
909.512	282.915
909.640	254.681
909.768	250.511
909.896	296.957
910.024	278.638
910.152	255.277
910.280	294.723
910.408	244.851
910.537	247.128
910.665	282.574
910.793	251.128
910.921	262.894
911.049	246.660
911.177	236.915
911.305	267.745
911.433	263.468
911.562	253.426
911.690	254.872
911.818	306.362
911.946	246.787
912.074	272.170
912.202	289.255
912.330	251.596
912.458	252.851
912.587	268.766
912.715	276.468
912.843	279.809
912.971	269.085
913.099	283.489
913.227	281.681
913.355	254.957
913.483	280.234
913.612	263.489
913.740	386.915
913.868	272.213
