90pol_90_130_at_750.00nm_cut_at_984.50Y_01.dat
24.04.2023
10:45:13
cut middle at Y: 984.50
top cursor: 1008 down cursor: 961 mean of: 47 lines , 2560 datapoints
wavelength(nm)	intensity[arb. units]
585.996	20468.596
586.124	19875.383
586.252	19727.468
586.380	19812.787
586.508	19772.404
586.637	19870.404
586.765	19893.489
586.893	19945.915
587.021	19994.383
587.149	20116.915
587.277	20084.106
587.405	20190.553
587.533	20055.191
587.662	20313.723
587.790	20242.128
587.918	20174.617
588.046	20190.851
588.174	20139.660
588.302	20299.681
588.430	20184.830
588.558	20161.702
588.687	20278.660
588.815	20229.340
588.943	20274.745
589.071	20227.936
589.199	20318.936
589.327	20213.426
589.455	20195.234
589.583	20346.638
589.712	20331.596
589.840	20266.915
589.968	20276.468
590.096	20243.596
590.224	20238.362
590.352	20330.957
590.480	20289.319
590.608	20297.149
590.737	20360.511
590.865	20370.298
590.993	20308.106
591.121	20366.106
591.249	20384.574
591.377	20321.574
591.505	20299.404
591.633	20430.681
591.762	20378.787
591.890	20479.851
592.018	20357.574
592.146	20379.596
592.274	20325.638
592.402	20397.489
592.530	20419.894
592.658	20715.362
592.787	20510.191
592.915	20731.915
593.043	20615.723
593.171	20751.234
593.299	20796.043
593.427	20808.000
593.555	20899.723
593.683	20843.362
593.812	21011.362
593.940	20969.277
594.068	21068.553
594.196	21139.255
594.324	21161.191
594.452	21193.170
594.580	21304.191
594.708	21302.128
594.837	21344.702
594.965	21386.787
595.093	21561.362
595.221	21516.383
595.349	21701.128
595.477	21639.766
595.605	21695.447
595.733	21654.340
595.862	22009.574
595.990	21854.191
596.118	21902.681
596.246	22051.383
596.374	21961.489
596.502	22037.170
596.630	22061.426
596.758	22101.979
596.887	22094.617
597.015	22095.468
597.143	22153.617
597.271	22236.723
597.399	22134.894
597.527	22169.404
597.655	22259.170
597.783	22226.894
597.912	22192.957
598.040	22152.277
598.168	22201.319
598.296	22218.766
598.424	22191.957
598.552	22244.596
598.680	22143.000
598.808	22235.489
598.937	22176.340
599.065	22090.723
599.193	22136.957
599.321	22135.021
599.449	22047.426
599.577	22101.277
599.705	22117.660
599.833	22038.532
599.962	22062.681
600.090	22071.277
600.218	22145.766
600.346	22171.702
600.474	22170.191
600.602	22158.957
600.730	22191.979
600.858	22281.298
600.987	22385.894
601.115	22336.787
601.243	22438.979
601.371	22448.553
601.499	22486.617
601.627	22565.170
601.755	22594.723
601.883	22738.830
602.012	22825.447
602.140	22776.149
602.268	22990.298
602.396	22934.340
602.524	23141.702
602.652	23177.511
602.780	23242.106
602.908	23352.745
603.037	23415.553
603.165	23465.681
603.293	23592.340
603.421	23651.043
603.549	23766.106
603.677	23895.468
603.805	24024.404
603.933	24090.319
604.062	24215.213
604.190	24310.787
604.318	24472.468
604.446	24543.468
604.574	24641.234
604.702	24720.234
604.830	24825.596
604.958	24815.191
605.087	24953.553
605.215	25083.660
605.343	25127.723
605.471	25221.043
605.599	25340.681
605.727	25351.213
605.855	25431.957
605.983	25511.511
606.112	25548.745
606.240	25533.085
606.368	25597.213
606.496	25822.723
606.624	25660.617
606.752	25804.511
606.880	25883.596
607.008	26019.489
607.137	25913.128
607.265	25729.851
607.393	25809.064
607.521	25916.213
607.649	25870.511
607.777	25829.745
607.905	25877.936
608.033	25804.383
608.162	25822.340
608.290	25855.596
608.418	25758.809
608.546	25809.489
608.674	25739.745
608.802	25763.489
608.930	25772.064
609.058	25776.553
609.187	25875.468
609.315	25803.298
609.443	25767.681
609.571	25824.830
609.699	25760.936
609.827	25768.915
609.955	25827.383
610.083	25686.532
610.212	25782.298
610.340	25659.106
610.468	25824.021
610.596	25777.021
610.724	25821.809
610.852	25767.851
610.980	25816.957
611.108	25820.894
611.237	25742.723
611.365	25856.213
611.493	25891.106
611.621	25907.660
611.749	25957.830
611.877	26062.511
612.005	26065.830
612.133	26137.894
612.262	26227.298
612.390	26168.723
612.518	26298.809
612.646	26437.809
612.774	26423.128
612.902	26551.851
613.030	26629.277
613.158	26816.638
613.287	26893.298
613.415	26743.149
613.543	26774.000
613.671	26733.085
613.799	26999.383
613.927	26815.085
614.055	26916.532
614.183	27111.426
614.312	26978.894
614.440	27119.043
614.568	27123.596
614.696	27227.447
614.824	27462.872
614.952	27391.979
615.080	27464.064
615.208	27633.170
615.337	27678.319
615.465	27773.745
615.593	28009.787
615.721	28067.213
615.849	28171.872
615.977	28242.979
616.105	28238.277
616.233	28133.043
616.362	28259.489
616.490	28280.638
616.618	28301.170
616.746	28391.915
616.874	28431.681
617.002	28376.255
617.130	28461.106
617.258	28658.596
617.387	28522.915
617.515	28517.702
617.643	28608.851
617.771	28542.255
617.899	28585.085
618.027	28608.638
618.155	28649.383
618.283	28668.043
618.412	28726.532
618.540	28710.532
618.668	28754.085
618.796	28827.426
618.924	28964.468
619.052	28820.064
619.180	28875.872
619.308	28885.021
619.437	28951.234
619.565	28952.638
619.693	28904.128
619.821	28869.766
619.949	28984.915
620.077	29036.660
620.205	29079.447
620.333	29103.872
620.462	29088.553
620.590	29141.447
620.718	29108.064
620.846	29132.128
620.974	29145.404
621.102	29146.553
621.230	29099.979
621.358	29250.617
621.487	29136.894
621.615	29121.362
621.743	29204.319
621.871	29257.255
621.999	29236.574
622.127	29162.915
622.255	29191.149
622.383	29213.170
622.512	29116.766
622.640	29300.532
622.768	29173.574
622.896	29186.511
623.024	29194.277
623.152	29181.043
623.280	29156.596
623.408	29207.574
623.537	29171.574
623.665	29151.362
623.793	29178.553
623.921	29123.468
624.049	29083.511
624.177	29105.745
624.305	29077.447
624.433	29077.021
624.562	29211.851
624.690	29102.936
624.818	29095.872
624.946	29201.128
625.074	29111.426
625.202	29067.915
625.330	29028.106
625.458	29039.574
625.587	29083.915
625.715	28973.021
625.843	29150.000
625.971	29104.085
626.099	29015.957
626.227	29046.894
626.355	28936.723
626.483	29148.681
626.612	29029.915
626.740	29039.213
626.868	29059.511
626.996	29102.021
627.124	29061.447
627.252	29122.447
627.380	29157.021
627.508	29157.745
627.637	29100.383
627.765	29187.468
627.893	29232.787
628.021	29311.255
628.149	29517.213
628.277	29634.319
628.405	29667.021
628.533	29453.957
628.662	29408.213
628.790	29403.106
628.918	29459.404
629.046	29553.596
629.174	29776.426
629.302	30005.660
629.430	29859.851
629.558	29649.574
629.687	29767.234
629.815	29841.277
629.943	29971.894
630.071	29982.362
630.199	30005.021
630.327	30094.362
630.455	30084.362
630.583	30112.766
630.712	30168.915
630.840	30181.702
630.968	30240.085
631.096	30190.596
631.224	30279.128
631.352	30260.830
631.480	30241.553
631.608	30425.340
631.737	30524.255
631.865	30533.447
631.993	30477.213
632.121	30568.872
632.249	30517.702
632.377	30496.128
632.505	30514.638
632.633	30293.340
632.762	30417.638
632.890	30528.851
633.018	30329.043
633.146	30535.064
633.274	30310.830
633.402	30396.128
633.530	30318.255
633.658	30489.596
633.787	30296.638
633.915	30331.404
634.043	30199.170
634.171	30285.702
634.299	30225.638
634.427	30139.787
634.555	30138.851
634.683	30145.596
634.812	30069.277
634.940	30068.894
635.068	30040.298
635.196	29977.064
635.324	29954.532
635.452	29893.617
635.580	29927.617
635.708	29833.830
635.837	29907.617
635.965	29808.723
636.093	29606.043
636.221	29687.340
636.349	29679.255
636.477	29632.489
636.605	29757.447
636.733	29475.723
636.862	29490.830
636.990	29465.362
637.118	29382.170
637.246	29402.106
637.374	29291.000
637.502	29384.255
637.630	29255.979
637.758	29191.787
637.887	29225.362
638.015	29094.149
638.143	29137.362
638.271	29050.021
638.399	29047.404
638.527	29082.149
638.655	29048.000
638.783	29151.234
638.912	29011.638
639.040	28981.894
639.168	28954.957
639.296	28980.851
639.424	29028.553
639.552	28871.298
639.680	29067.681
639.808	28881.915
639.937	28833.830
640.065	28804.468
640.193	28905.532
640.321	28804.787
640.449	28840.830
640.577	29006.043
640.705	28795.255
640.833	28870.830
640.962	28739.830
641.090	28743.702
641.218	28811.277
641.346	28860.106
641.474	28850.149
641.602	28752.170
641.730	28808.319
641.858	28779.021
641.987	28836.234
642.115	28770.787
642.243	28906.830
642.371	28788.000
642.499	28824.723
642.627	28888.489
642.755	28904.404
642.883	28836.128
643.012	28891.319
643.140	28878.000
643.268	28923.128
643.396	28933.979
643.524	29021.298
643.652	28895.489
643.780	28785.766
643.908	28950.106
644.037	28982.149
644.165	28974.638
644.293	28928.979
644.421	28975.149
644.549	29004.340
644.677	29011.085
644.805	28963.128
644.933	28898.851
645.062	28900.383
645.190	28894.851
645.318	29009.213
645.446	28881.851
645.574	28904.319
645.702	28789.404
645.830	28976.851
645.958	28732.426
646.087	28939.468
646.215	28663.787
646.343	28890.851
646.471	28679.872
646.599	28628.106
646.727	28644.638
646.855	28569.660
646.983	28648.128
647.112	28607.489
647.240	28730.660
647.368	28483.638
647.496	28549.043
647.624	28454.404
647.752	28444.085
647.880	28371.043
648.008	28367.255
648.137	28364.489
648.265	28353.851
648.393	28273.809
648.521	28236.362
648.649	28225.128
648.777	28212.660
648.905	28047.043
649.033	28023.553
649.162	27970.213
649.290	27947.447
649.418	27865.298
649.546	27877.766
649.674	27725.830
649.802	27639.191
649.930	27818.021
650.058	27663.702
650.187	27614.447
650.315	27574.830
650.443	27490.660
650.571	27456.170
650.699	27411.702
650.827	27372.149
650.955	27376.617
651.083	27367.170
651.212	27270.979
651.340	27254.298
651.468	27181.170
651.596	27107.511
651.724	26985.936
651.852	27124.277
651.980	26987.830
652.108	26974.170
652.237	26891.085
652.365	26909.213
652.493	26834.936
652.621	26788.170
652.749	26823.894
652.877	26734.426
653.005	26662.234
653.133	26677.468
653.262	26663.702
653.390	26596.574
653.518	26568.298
653.646	26576.404
653.774	26610.596
653.902	26398.447
654.030	26378.468
654.158	26392.468
654.287	26375.021
654.415	26257.489
654.543	26260.660
654.671	26157.979
654.799	26163.617
654.927	26046.213
655.055	26031.638
655.183	26029.489
655.312	25948.468
655.440	25889.596
655.568	25746.191
655.696	25802.000
655.824	25804.234
655.952	25719.681
656.080	25633.489
656.208	25675.234
656.337	25471.234
656.465	25522.660
656.593	25438.872
656.721	25271.787
656.849	25335.553
656.977	25303.723
657.105	25231.447
657.233	25136.915
657.362	25044.447
657.490	24966.404
657.618	24914.574
657.746	24929.936
657.874	24826.213
658.002	24789.915
658.130	24713.489
658.258	24614.723
658.387	24616.085
658.515	24455.106
658.643	24528.319
658.771	24502.489
658.899	24474.404
659.027	24390.532
659.155	24328.213
659.283	24389.511
659.412	24223.383
659.540	24202.787
659.668	24030.553
659.796	24025.489
659.924	24042.894
660.052	23958.532
660.180	23827.830
660.308	23850.191
660.437	23793.957
660.565	23712.872
660.693	23644.766
660.821	23636.809
660.949	23526.766
661.077	23561.128
661.205	23600.851
661.333	23406.872
661.462	23589.426
661.590	23437.851
661.718	23488.723
661.846	23335.872
661.974	23320.213
662.102	23162.660
662.230	23249.383
662.358	23102.404
662.487	23145.745
662.615	22963.000
662.743	22987.234
662.871	23028.532
662.999	22980.511
663.127	22922.404
663.255	22958.809
663.383	22974.957
663.512	22889.596
663.640	22906.085
663.768	22836.489
663.896	22871.489
664.024	22814.532
664.152	22863.851
664.280	22906.298
664.408	22859.915
664.537	22778.872
664.665	22761.191
664.793	22657.340
664.921	22653.191
665.049	22688.000
665.177	22644.574
665.305	22612.106
665.433	22603.745
665.562	22584.043
665.690	22562.936
665.818	22661.468
665.946	22565.277
666.074	22478.787
666.202	22500.021
666.330	22492.404
666.458	22418.809
666.587	22362.234
666.715	22412.979
666.843	22425.064
666.971	22307.894
667.099	22347.872
667.227	22312.298
667.355	22277.404
667.483	22263.170
667.612	22242.596
667.740	22270.915
667.868	22268.638
667.996	22167.723
668.124	22097.894
668.252	22013.830
668.380	22070.532
668.508	22062.404
668.637	22027.149
668.765	21967.830
668.893	21970.745
669.021	21897.298
669.149	21867.383
669.277	21909.426
669.405	21826.894
669.533	21836.404
669.662	22035.404
669.790	21723.532
669.918	21750.064
670.046	21633.447
670.174	21615.894
670.302	21502.979
670.430	21488.447
670.558	21437.234
670.687	21311.213
670.815	21380.255
670.943	21149.043
671.071	21145.787
671.199	21061.021
671.327	21074.638
671.455	21027.021
671.583	20913.468
671.712	20989.766
671.840	20793.128
671.968	20629.660
672.096	20647.128
672.224	20574.021
672.352	20686.128
672.480	20507.021
672.608	20436.277
672.737	20280.170
672.865	20413.021
672.993	20141.064
673.121	20078.255
673.249	19935.596
673.377	19924.830
673.505	19851.553
673.633	19777.000
673.762	19654.043
673.890	19616.170
674.018	19803.872
674.146	19501.319
674.274	19437.489
674.402	19543.660
674.530	19391.596
674.658	19222.936
674.787	19147.894
674.915	19141.872
675.043	19152.979
675.171	19094.957
675.299	18899.745
675.427	18871.468
675.555	18747.213
675.683	18646.298
675.812	18674.957
675.940	18622.532
676.068	18524.596
676.196	18471.723
676.324	18413.787
676.452	18342.468
676.580	18173.213
676.708	18212.128
676.837	18123.532
676.965	18151.617
677.093	18009.660
677.221	17938.979
677.349	17957.106
677.477	17848.085
677.605	17762.936
677.733	17760.277
677.862	17490.362
677.990	17529.043
678.118	17465.660
678.246	17365.638
678.374	17442.319
678.502	17231.043
678.630	17235.511
678.758	17170.213
678.887	17065.362
679.015	17052.553
679.143	17023.362
679.271	16948.830
679.399	16943.766
679.527	16842.596
679.655	16754.745
679.783	16741.064
679.912	16778.191
680.040	16642.532
680.168	16605.809
680.296	16527.234
680.424	16508.319
680.552	16454.766
680.680	16453.809
680.808	16393.234
680.937	16296.021
681.065	16201.766
681.193	16179.851
681.321	16206.638
681.449	16191.638
681.577	16148.298
681.705	16086.681
681.833	15982.681
681.962	15979.191
682.090	16098.404
682.218	15923.426
682.346	15897.149
682.474	15866.489
682.602	15785.617
682.730	15819.596
682.858	15702.957
682.987	15750.511
683.115	15716.894
683.243	15618.596
683.371	15619.872
683.499	15650.596
683.627	15629.979
683.755	15619.872
683.883	15626.745
684.012	15462.447
684.140	15413.723
684.268	15422.106
684.396	15375.213
684.524	15357.213
684.652	15347.383
684.780	15323.213
684.908	15290.745
685.037	15214.872
685.165	15101.255
685.293	15093.426
685.421	15233.043
685.549	15080.128
685.677	15029.468
685.805	15123.468
685.933	15001.191
686.062	14900.489
686.190	14810.681
686.318	14861.936
686.446	14777.830
686.574	14714.255
686.702	14833.596
686.830	14726.660
686.958	14697.000
687.087	14663.936
687.215	14606.787
687.343	14534.319
687.471	14476.830
687.599	14421.915
687.727	14588.915
687.855	14436.660
687.983	14407.957
688.112	14422.915
688.240	14314.787
688.368	14158.383
688.496	14197.234
688.624	14196.787
688.752	14038.723
688.880	14086.128
689.008	14039.383
689.137	13992.766
689.265	13920.681
689.393	13845.894
689.521	13783.532
689.649	13752.298
689.777	13752.000
689.905	13702.383
690.033	13625.255
690.162	13639.809
690.290	13572.170
690.418	13511.021
690.546	13525.681
690.674	13497.021
690.802	13356.957
690.930	13361.830
691.058	13327.021
691.187	13252.277
691.315	13219.383
691.443	13254.489
691.571	13147.340
691.699	13137.149
691.827	13091.894
691.955	13005.021
692.083	12973.383
692.212	13034.021
692.340	12820.170
692.468	12824.787
692.596	12819.766
692.724	12887.851
692.852	12635.043
692.980	12702.064
693.108	12624.638
693.237	12522.851
693.365	12493.596
693.493	12441.064
693.621	12402.106
693.749	12327.723
693.877	12292.128
694.005	12341.872
694.133	12202.851
694.262	12199.085
694.390	12134.468
694.518	12124.957
694.646	12053.702
694.774	12048.915
694.902	12077.234
695.030	12008.255
695.158	11815.766
695.287	11862.213
695.415	11780.362
695.543	11755.660
695.671	11840.851
695.799	11697.638
695.927	11623.255
696.055	11583.021
696.183	11517.872
696.312	11470.000
696.440	11604.766
696.568	11510.000
696.696	11504.660
696.824	11308.617
696.952	11303.255
697.080	11289.234
697.208	11152.872
697.337	11231.702
697.465	11160.532
697.593	11027.851
697.721	11059.085
697.849	11058.553
697.977	11003.170
698.105	10922.128
698.233	10886.851
698.362	10889.979
698.490	10792.043
698.618	10809.149
698.746	10851.489
698.874	10772.277
699.002	10881.745
699.130	10676.383
699.258	10646.745
699.387	10532.383
699.515	10520.170
699.643	10496.894
699.771	10534.596
699.899	10385.447
700.027	10429.340
700.155	10335.681
700.283	10320.468
700.412	10268.234
700.540	10180.021
700.668	10193.277
700.796	10141.170
700.924	10122.894
701.052	10050.043
701.180	10108.383
701.308	9968.638
701.437	9860.426
701.565	9849.723
701.693	9796.979
701.821	9768.255
701.949	9719.043
702.077	9702.085
702.205	9586.383
702.333	9556.298
702.462	9541.702
702.590	9464.894
702.718	9399.234
702.846	9368.128
702.974	9330.851
703.102	9363.128
703.230	9331.064
703.358	9297.255
703.487	9167.979
703.615	9271.489
703.743	9078.638
703.871	8984.809
703.999	8992.936
704.127	9041.213
704.255	8796.660
704.383	8976.298
704.512	8795.170
704.640	8759.000
704.768	8636.191
704.896	8698.766
705.024	8554.936
705.152	8653.511
705.280	8512.936
705.408	8459.872
705.537	8394.362
705.665	8329.574
705.793	8316.681
705.921	8274.000
706.049	8229.468
706.177	8174.319
706.305	8143.596
706.433	8182.191
706.562	8071.064
706.690	8013.128
706.818	7931.660
706.946	8154.085
707.074	7891.723
707.202	7867.021
707.330	7914.149
707.458	7819.979
707.587	7746.660
707.715	7714.553
707.843	7691.362
707.971	7694.277
708.099	7709.000
708.227	7563.787
708.355	7519.000
708.483	7478.979
708.612	7449.170
708.740	7445.064
708.868	7508.830
708.996	7428.298
709.124	7392.532
709.252	7301.128
709.380	7272.106
709.508	7261.255
709.637	7232.660
709.765	7200.149
709.893	7174.851
710.021	7168.447
710.149	7103.234
710.277	7111.213
710.405	7000.277
710.533	7039.213
710.662	6969.426
710.790	6964.723
710.918	6948.128
711.046	6920.128
711.174	6873.149
711.302	6875.319
711.430	6930.745
711.558	6760.362
711.687	6759.213
711.815	6769.872
711.943	6705.383
712.071	6717.553
712.199	6697.468
712.327	6661.149
712.455	6581.553
712.583	6585.766
712.712	6559.681
712.840	6537.660
712.968	6542.553
713.096	6539.872
713.224	6416.766
713.352	6444.894
713.480	6424.021
713.608	6396.000
713.737	6398.362
713.865	6397.851
713.993	6407.894
714.121	6315.681
714.249	6332.957
714.377	6370.596
714.505	6278.340
714.633	6405.064
714.762	6236.191
714.890	6191.574
715.018	6196.340
715.146	6191.255
715.274	6212.532
715.402	6297.170
715.530	6204.447
715.658	6036.511
715.787	6054.809
715.915	6181.277
716.043	6001.362
716.171	6084.383
716.299	6069.809
716.427	5967.638
716.555	5896.298
716.683	5914.809
716.812	5895.383
716.940	5902.681
717.068	5807.596
717.196	5962.319
717.324	5914.191
717.452	5782.106
717.580	5741.383
717.708	5749.766
717.837	5774.340
717.965	5663.298
718.093	5688.149
718.221	5616.979
718.349	5630.660
718.477	5606.532
718.605	5640.979
718.733	5547.128
718.862	5541.532
718.990	5505.979
719.118	5512.255
719.246	5427.255
719.374	5506.766
719.502	5413.021
719.630	5557.532
719.758	5347.447
719.887	5333.979
720.015	5502.426
720.143	5247.766
720.271	5243.447
720.399	5264.191
720.527	5278.191
720.655	5261.979
720.783	5265.957
720.912	5149.043
721.040	5154.021
721.168	5083.340
721.296	5122.851
721.424	5056.830
721.552	4989.128
721.680	4958.426
721.808	4996.000
721.937	4955.085
722.065	5030.340
722.193	5010.489
722.321	4874.617
722.449	4856.872
722.577	4805.106
722.705	4791.213
722.833	4833.638
722.962	4815.979
723.090	4698.979
723.218	4660.702
723.346	4688.447
723.474	4662.745
723.602	4774.021
723.730	4700.638
723.858	4739.979
723.987	4643.596
724.115	4688.574
724.243	4569.787
724.371	4590.723
724.499	4575.170
724.627	4479.362
724.755	4465.979
724.883	4444.745
725.012	4394.106
725.140	4439.085
725.268	4385.957
725.396	4313.638
725.524	4307.489
725.652	4333.745
725.780	4267.000
725.908	4329.574
726.037	4420.745
726.165	4189.383
726.293	4171.766
726.421	4139.404
726.549	4123.723
726.677	4117.787
726.805	4092.532
726.933	4065.660
727.062	4111.574
727.190	4074.404
727.318	3991.106
727.446	4021.340
727.574	3984.043
727.702	4089.021
727.830	3907.830
727.958	3984.362
728.087	3933.064
728.215	4012.809
728.343	3941.979
728.471	3872.745
728.599	3846.128
728.727	3934.723
728.855	3781.745
728.983	3814.915
729.112	3776.979
729.240	3736.426
729.368	3760.213
729.496	3750.213
729.624	3734.128
729.752	3660.170
729.880	3669.851
730.008	3639.809
730.137	3599.489
730.265	3795.064
730.393	3602.064
730.521	3703.170
730.649	3618.915
730.777	3586.255
730.905	3556.617
731.033	3618.489
731.162	3752.447
731.290	3658.043
731.418	3723.383
731.546	3664.085
731.674	3528.298
731.802	3555.894
731.930	3432.043
732.058	3421.128
732.187	3406.426
732.315	3402.298
732.443	3379.149
732.571	3524.872
732.699	3410.340
732.827	3387.106
732.955	3338.255
733.083	3256.383
733.212	3373.915
733.340	3357.979
733.468	3350.043
733.596	3209.106
733.724	3274.681
733.852	3224.489
733.980	3234.021
734.108	3431.915
734.237	3288.043
734.365	3291.064
734.493	3191.851
734.621	3158.362
734.749	3138.277
734.877	3176.532
735.005	3157.936
735.133	3178.447
735.262	3204.681
735.390	3044.830
735.518	3242.021
735.646	3019.340
735.774	3026.170
735.902	3029.638
736.030	2997.915
736.158	3055.511
736.287	2942.638
736.415	3192.170
736.543	2978.383
736.671	2925.830
736.799	2932.000
736.927	2989.255
737.055	2950.149
737.183	3038.340
737.312	2967.681
737.440	2955.745
737.568	2933.043
737.696	2845.851
737.824	2894.191
737.952	2888.745
738.080	2854.213
738.208	2870.702
738.337	2837.936
738.465	2878.404
738.593	2779.298
738.721	2768.787
738.849	2795.383
738.977	2763.936
739.105	2779.447
739.233	2717.000
739.362	2738.574
739.490	2644.489
739.618	2684.277
739.746	2652.851
739.874	2883.064
740.002	2785.362
740.130	2729.957
740.258	2636.766
740.387	2558.638
740.515	2721.851
740.643	2564.298
740.771	2582.745
740.899	2558.340
741.027	2629.702
741.155	2690.553
741.283	2521.851
741.412	2507.255
741.540	2560.681
741.668	2608.745
741.796	2641.936
741.924	2574.064
742.052	2509.766
742.180	2598.298
742.308	2521.511
742.437	2539.851
742.565	2563.894
742.693	2597.553
742.821	2531.319
742.949	2544.936
743.077	2512.830
743.205	2494.404
743.333	2500.745
743.462	2494.255
743.590	2506.149
743.718	2459.830
743.846	2482.021
743.974	2456.660
744.102	2437.617
744.230	2466.447
744.358	2426.872
744.487	2417.489
744.615	2442.468
744.743	2380.213
744.871	2390.681
744.999	2437.064
745.127	2357.745
745.255	2343.404
745.383	2379.894
745.512	2361.000
745.640	2338.277
745.768	2346.851
745.896	2363.085
746.024	2327.128
746.152	2312.766
746.280	2297.489
746.408	2282.809
746.537	2283.702
746.665	2291.106
746.793	2294.894
746.921	2228.383
747.049	2263.809
747.177	2264.787
747.305	2287.723
747.433	2293.489
747.562	2201.021
747.690	2225.106
747.818	2221.298
747.946	2186.255
748.074	2289.809
748.202	2210.894
748.330	2197.149
748.458	2202.617
748.587	2140.021
748.715	2141.043
748.843	2146.766
748.971	2137.511
749.099	2129.596
749.227	2136.447
749.355	2103.809
749.483	2109.298
749.612	2099.596
749.740	2091.468
749.868	2051.277
749.996	2069.660
750.124	2028.234
750.252	2059.000
750.380	2069.021
750.508	2018.170
750.637	2020.957
750.765	2032.085
750.893	2019.298
751.021	2042.021
751.149	2007.021
751.277	2031.277
751.405	2038.596
751.533	2041.213
751.662	1950.085
751.790	1993.872
751.918	1940.660
752.046	1951.191
752.174	1940.085
752.302	1976.128
752.430	1917.936
752.558	1899.383
752.687	1902.979
752.815	1898.043
752.943	1877.085
753.071	1851.766
753.199	1857.532
753.327	1894.106
753.455	1854.021
753.583	1829.043
753.712	1816.851
753.840	1815.851
753.968	1820.128
754.096	1810.255
754.224	1780.936
754.352	1791.128
754.480	1779.426
754.608	1777.872
754.737	1761.957
754.865	1796.872
754.993	1761.468
755.121	1732.745
755.249	1804.915
755.377	1733.872
755.505	1714.660
755.633	1739.723
755.762	1693.085
755.890	1760.149
756.018	1731.170
756.146	1659.660
756.274	1647.787
756.402	1646.468
756.530	1666.362
756.658	1655.957
756.787	1650.660
756.915	1603.702
757.043	1641.255
757.171	1620.766
757.299	1613.128
757.427	1586.362
757.555	1589.511
757.683	1620.191
757.812	1555.191
757.940	1562.255
758.068	1534.532
758.196	1529.426
758.324	1508.277
758.452	1628.447
758.580	1509.574
758.708	1513.596
758.837	1496.404
758.965	1598.064
759.093	1484.830
759.221	1463.894
759.349	1472.447
759.477	1456.064
759.605	1457.383
759.733	1423.149
759.862	1439.319
759.990	1422.383
760.118	1419.404
760.246	1412.383
760.374	1422.894
760.502	1404.085
760.630	1407.213
760.758	1390.383
760.887	1352.617
761.015	1377.426
761.143	1353.255
761.271	1348.617
761.399	1324.191
761.527	1331.660
761.655	1337.277
761.783	1322.979
761.912	1292.660
762.040	1280.681
762.168	1321.574
762.296	1290.851
762.424	1285.574
762.552	1283.170
762.680	1331.617
762.808	1241.596
762.937	1252.170
763.065	1296.638
763.193	1283.936
763.321	1245.234
763.449	1200.468
763.577	1214.170
763.705	1197.532
763.833	1272.128
763.962	1190.319
764.090	1169.894
764.218	1184.128
764.346	1182.149
764.474	1151.234
764.602	1154.702
764.730	1133.638
764.858	1164.191
764.987	1149.298
765.115	1171.872
765.243	1115.340
765.371	1101.404
765.499	1084.872
765.627	1084.872
765.755	1080.915
765.883	1107.872
766.012	1084.702
766.140	1057.702
766.268	1079.255
766.396	1044.468
766.524	1065.596
766.652	1037.723
766.780	1042.787
766.908	1042.128
767.037	1036.957
767.165	1047.000
767.293	1083.511
767.421	1014.745
767.549	1005.383
767.677	1032.362
767.805	1005.277
767.933	1011.362
768.062	1017.043
768.190	1006.064
768.318	971.723
768.446	1001.489
768.574	1016.362
768.702	1000.362
768.830	976.298
768.958	972.660
769.087	938.830
769.215	950.404
769.343	960.106
769.471	936.426
769.599	980.128
769.727	961.851
769.855	939.085
769.983	940.426
770.112	923.957
770.240	923.064
770.368	922.128
770.496	920.894
770.624	905.064
770.752	928.553
770.880	944.745
771.008	916.638
771.137	904.128
771.265	947.277
771.393	900.660
771.521	897.809
771.649	888.936
771.777	891.617
771.905	876.936
772.033	899.191
772.162	901.000
772.290	887.426
772.418	941.681
772.546	899.234
772.674	876.170
772.802	892.681
772.930	910.532
773.058	859.574
773.187	863.532
773.315	860.957
773.443	857.213
773.571	866.021
773.699	851.064
773.827	831.723
773.955	875.766
774.083	852.234
774.212	848.511
774.340	865.872
774.468	834.298
774.596	839.872
774.724	829.745
774.852	834.638
774.980	819.085
775.108	811.170
775.237	824.106
775.365	826.915
775.493	821.234
775.621	812.319
775.749	819.915
775.877	808.170
776.005	817.596
776.133	816.426
776.262	808.340
776.390	778.766
776.518	826.489
776.646	795.660
776.774	798.000
776.902	798.979
777.030	789.064
777.158	781.745
777.287	808.234
777.415	759.872
777.543	770.638
777.671	762.617
777.799	753.340
777.927	772.574
778.055	772.809
778.183	761.702
778.312	739.723
778.440	747.085
778.568	761.936
778.696	735.787
778.824	743.085
778.952	744.553
779.080	723.936
779.208	758.979
779.337	749.872
779.465	743.085
779.593	734.383
779.721	742.447
779.849	744.851
779.977	729.319
780.105	709.809
780.233	736.319
780.362	739.745
780.490	749.617
780.618	714.191
780.746	708.319
780.874	692.936
781.002	703.000
781.130	691.553
781.258	681.830
781.387	696.128
781.515	713.021
781.643	697.745
781.771	731.447
781.899	686.277
782.027	722.404
782.155	687.191
782.283	687.638
782.412	667.043
782.540	673.787
782.668	695.723
782.796	650.511
782.924	689.574
783.052	652.979
783.180	695.128
783.308	642.255
783.437	664.766
783.565	658.979
783.693	661.915
783.821	660.702
783.949	642.021
784.077	668.383
784.205	645.830
784.333	681.660
784.462	628.298
784.590	638.809
784.718	660.723
784.846	625.511
784.974	651.681
785.102	673.894
785.230	633.340
785.358	668.638
785.487	630.936
785.615	631.234
785.743	623.787
785.871	622.106
785.999	612.532
786.127	596.532
786.255	634.638
786.383	635.936
786.512	636.362
786.640	608.957
786.768	627.702
786.896	595.106
787.024	606.915
787.152	601.745
787.280	604.851
787.408	588.851
787.537	618.723
787.665	588.957
787.793	627.447
787.921	601.957
788.049	601.383
788.177	582.340
788.305	578.723
788.433	617.255
788.562	584.596
788.690	578.362
788.818	583.255
788.946	599.404
789.074	572.191
789.202	595.383
789.330	595.787
789.458	581.532
789.587	628.553
789.715	576.191
789.843	567.064
789.971	566.340
790.099	558.362
790.227	578.468
790.355	558.489
790.483	586.617
790.612	562.574
790.740	568.213
790.868	571.043
790.996	566.447
791.124	545.426
791.252	558.809
791.380	557.915
791.508	564.830
791.637	548.000
791.765	533.340
791.893	545.617
792.021	542.319
792.149	542.936
792.277	550.681
792.405	526.638
792.533	553.213
792.662	512.596
792.790	516.787
792.918	554.170
793.046	525.745
793.174	548.809
793.302	525.553
793.430	535.702
793.558	512.702
793.687	526.957
793.815	509.553
793.943	535.383
794.071	537.915
794.199	513.085
794.327	519.915
794.455	590.638
794.583	603.723
794.712	506.255
794.840	513.830
794.968	518.191
795.096	530.915
795.224	494.979
795.352	497.596
795.480	542.872
795.608	509.362
795.737	508.660
795.865	500.043
795.993	478.532
796.121	476.766
796.249	495.234
796.377	501.128
796.505	490.383
796.633	475.872
796.762	477.000
796.890	488.872
797.018	496.128
797.146	479.596
797.274	465.532
797.402	471.553
797.530	488.511
797.658	473.872
797.787	514.234
797.915	465.213
798.043	486.319
798.171	456.617
798.299	476.191
798.427	456.872
798.555	470.617
798.683	448.000
798.812	464.660
798.940	526.234
799.068	452.043
799.196	494.128
799.324	448.723
799.452	466.106
799.580	435.234
799.708	504.043
799.837	436.702
799.965	444.489
800.093	461.511
800.221	422.638
800.349	454.766
800.477	451.532
800.605	449.298
800.733	455.404
800.862	439.404
800.990	476.702
801.118	422.404
801.246	428.106
801.374	441.787
801.502	431.298
801.630	415.979
801.758	430.319
801.887	449.298
802.015	419.638
802.143	410.766
802.271	443.532
802.399	433.809
802.527	399.809
802.655	453.489
802.783	466.745
802.912	422.468
803.040	409.596
803.168	413.298
803.296	393.660
803.424	423.426
803.552	413.574
803.680	407.745
803.808	417.021
803.937	415.234
804.065	403.106
804.193	401.894
804.321	454.191
804.449	389.872
804.577	402.574
804.705	408.596
804.833	433.936
804.962	391.638
805.090	396.149
805.218	410.277
805.346	411.766
805.474	403.511
805.602	419.000
805.730	393.106
805.858	382.000
805.987	395.532
806.115	396.255
806.243	401.213
806.371	422.468
806.499	499.000
806.627	518.149
806.755	496.489
806.883	405.809
807.012	381.681
807.140	406.872
807.268	397.213
807.396	400.532
807.524	365.191
807.652	381.936
807.780	442.766
807.908	371.489
808.037	419.362
808.165	401.596
808.293	375.277
808.421	426.213
808.549	365.043
808.677	376.574
808.805	423.894
808.933	382.830
809.062	399.851
809.190	431.149
809.318	374.511
809.446	369.638
809.574	428.532
809.702	364.596
809.830	380.957
809.958	382.489
810.087	369.894
810.215	391.149
810.343	383.574
810.471	376.255
810.599	361.383
810.727	363.043
810.855	347.787
810.983	353.170
811.112	374.702
811.240	357.213
811.368	369.830
811.496	406.064
811.624	381.638
811.752	355.489
811.880	370.000
812.008	343.170
812.137	370.106
812.265	333.979
812.393	378.340
812.521	384.340
812.649	363.489
812.777	351.191
812.905	387.213
813.033	337.489
813.162	343.021
813.290	344.596
813.418	361.511
813.546	349.234
813.674	347.255
813.802	354.426
813.930	329.936
814.058	335.638
814.187	356.383
814.315	346.957
814.443	356.511
814.571	357.617
814.699	368.702
814.827	349.936
814.955	337.723
815.083	364.234
815.212	366.170
815.340	378.000
815.468	325.340
815.596	340.149
815.724	348.787
815.852	334.021
815.980	338.574
816.108	333.426
816.237	326.277
816.365	339.872
816.493	350.872
816.621	327.830
816.749	341.021
816.877	346.021
817.005	355.851
817.133	341.426
817.262	324.681
817.390	330.830
817.518	326.596
817.646	339.149
817.774	323.043
817.902	330.553
818.030	322.191
818.158	376.277
818.287	344.234
818.415	314.234
818.543	330.277
818.671	347.957
818.799	322.149
818.927	345.021
819.055	328.149
819.183	314.085
819.312	330.170
819.440	314.511
819.568	315.447
819.696	325.894
819.824	339.277
819.952	315.149
820.080	330.553
820.208	316.532
820.337	314.957
820.465	354.000
820.593	320.128
820.721	316.681
820.849	327.511
820.977	315.319
821.105	324.553
821.233	297.681
821.362	331.745
821.490	302.404
821.618	312.660
821.746	306.085
821.874	314.872
822.002	310.468
822.130	311.255
822.258	293.638
822.387	300.255
822.515	326.489
822.643	313.191
822.771	318.681
822.899	306.809
823.027	347.872
823.155	298.915
823.283	301.149
823.412	313.000
823.540	305.574
823.668	349.532
823.796	298.021
823.924	328.468
824.052	331.085
824.180	313.936
824.308	301.745
824.437	294.894
824.565	294.766
824.693	323.723
824.821	309.213
824.949	311.766
825.077	304.574
825.205	338.638
825.333	317.468
825.462	320.489
825.590	299.660
825.718	322.255
825.846	300.000
825.974	284.660
826.102	291.128
826.230	292.851
826.358	297.404
826.487	283.128
826.615	332.915
826.743	283.106
826.871	318.404
826.999	346.851
827.127	300.128
827.255	302.234
827.383	288.681
827.512	309.447
827.640	289.362
827.768	289.000
827.896	300.511
828.024	291.489
828.152	296.106
828.280	298.660
828.408	284.957
828.537	290.043
828.665	298.128
828.793	298.553
828.921	281.766
829.049	308.362
829.177	281.043
829.305	277.894
829.433	291.894
829.562	300.170
829.690	279.872
829.818	311.702
829.946	291.957
830.074	292.681
830.202	307.085
830.330	308.362
830.458	328.787
830.587	278.447
830.715	286.894
830.843	276.745
830.971	298.362
831.099	309.681
831.227	282.128
831.355	280.000
831.483	292.021
831.612	314.468
831.740	287.021
831.868	293.362
831.996	286.298
832.124	280.915
832.252	264.936
832.380	295.043
832.508	331.723
832.637	277.532
832.765	287.809
832.893	317.660
833.021	275.979
833.149	270.298
833.277	286.170
833.405	277.553
833.533	267.681
833.662	281.489
833.790	277.383
833.918	291.426
834.046	321.277
834.174	284.766
834.302	269.234
834.430	273.234
834.558	279.000
834.687	291.872
834.815	266.255
834.943	283.468
835.071	280.851
835.199	279.979
835.327	294.681
835.455	271.000
835.583	305.872
835.712	270.872
835.840	273.851
835.968	285.319
836.096	324.957
836.224	292.894
836.352	263.085
836.480	282.915
836.608	283.106
836.737	260.553
836.865	265.489
836.993	283.532
837.121	279.255
837.249	269.468
837.377	291.617
837.505	280.468
837.633	267.191
837.762	267.532
837.890	300.234
838.018	296.702
838.146	304.255
838.274	283.064
838.402	290.298
838.530	268.638
838.658	254.255
838.787	271.638
838.915	274.745
839.043	252.000
839.171	293.213
839.299	256.936
839.427	271.660
839.555	267.149
839.683	287.277
839.812	300.043
839.940	253.936
840.068	283.787
840.196	277.489
840.324	270.851
840.452	266.213
840.580	309.362
840.708	269.851
840.837	296.702
840.965	264.340
841.093	273.106
841.221	258.723
841.349	268.787
841.477	278.340
841.605	276.511
841.733	269.064
841.862	277.021
841.990	325.553
842.118	250.043
842.246	259.681
842.374	264.596
842.502	245.596
842.630	281.596
842.758	284.894
842.887	254.489
843.015	262.447
843.143	290.064
843.271	265.638
843.399	303.894
843.527	273.766
843.655	248.489
843.783	250.255
843.912	260.766
844.040	289.532
844.168	254.553
844.296	253.234
844.424	250.213
844.552	270.021
844.680	280.745
844.808	278.787
844.937	265.574
845.065	258.787
845.193	276.830
845.321	258.489
845.449	265.809
845.577	259.191
845.705	261.957
845.833	247.000
845.962	271.404
846.090	246.128
846.218	266.362
846.346	274.830
846.474	272.596
846.602	263.638
846.730	290.532
846.858	272.255
846.987	258.064
847.115	248.234
847.243	282.085
847.371	282.702
847.499	277.553
847.627	258.085
847.755	248.745
847.883	267.106
848.012	267.383
848.140	258.936
848.268	266.383
848.396	245.936
848.524	278.404
848.652	237.745
848.780	255.064
848.908	261.277
849.037	252.170
849.165	268.362
849.293	270.766
849.421	281.511
849.549	262.234
849.677	263.362
849.805	259.447
849.933	265.106
850.062	253.191
850.190	252.809
850.318	263.021
850.446	247.383
850.574	242.128
850.702	254.021
850.830	253.383
850.958	272.532
851.087	242.255
851.215	264.085
851.343	248.085
851.471	251.723
851.599	257.915
851.727	260.170
851.855	304.660
851.983	261.936
852.112	256.064
852.240	249.191
852.368	254.830
852.496	253.340
852.624	248.660
852.752	250.021
852.880	240.191
853.008	253.000
853.137	260.277
853.265	268.830
853.393	252.851
853.521	261.362
853.649	254.745
853.777	239.745
853.905	263.234
854.033	253.957
854.162	311.000
854.290	247.553
854.418	241.149
854.546	246.979
854.674	349.915
854.802	246.149
854.930	238.894
855.058	239.319
855.187	241.191
855.315	265.915
855.443	234.149
855.571	237.511
855.699	242.404
855.827	247.617
855.955	246.021
856.083	243.149
856.212	256.936
856.340	241.277
856.468	293.681
856.596	267.766
856.724	255.128
856.852	252.106
856.980	248.830
857.108	262.830
857.237	237.596
857.365	262.489
857.493	246.255
857.621	232.085
857.749	247.851
857.877	261.149
858.005	266.128
858.133	247.745
858.262	248.617
858.390	239.638
858.518	232.362
858.646	235.660
858.774	241.277
858.902	219.766
859.030	239.915
859.158	256.191
859.287	251.213
859.415	273.447
859.543	232.362
859.671	232.617
859.799	264.723
859.927	247.277
860.055	245.638
860.183	253.872
860.312	242.319
860.440	252.170
860.568	241.383
860.696	229.809
860.824	308.723
860.952	291.128
861.080	243.106
861.208	249.404
861.337	256.255
861.465	270.553
861.593	272.064
861.721	244.362
861.849	241.723
861.977	228.426
862.105	252.234
862.233	276.362
862.362	260.809
862.490	260.915
862.618	239.787
862.746	242.957
862.874	240.489
863.002	240.362
863.130	275.277
863.258	245.766
863.387	256.170
863.515	264.617
863.643	249.106
863.771	313.234
863.899	242.213
864.027	239.617
864.155	231.298
864.283	260.766
864.412	242.064
864.540	237.894
864.668	232.915
864.796	240.957
864.924	246.723
865.052	246.936
865.180	233.191
865.308	219.489
865.437	249.319
865.565	250.170
865.693	276.234
865.821	247.979
865.949	268.617
866.077	243.702
866.205	260.362
866.333	255.149
866.462	234.298
866.590	247.553
866.718	254.511
866.846	237.617
866.974	249.872
867.102	258.128
867.230	278.638
867.358	243.021
867.487	233.723
867.615	262.255
867.743	242.213
867.871	255.681
867.999	246.957
868.127	239.851
868.255	290.681
868.383	290.915
868.512	237.681
868.640	241.702
868.768	227.426
868.896	228.979
869.024	275.702
869.152	241.596
869.280	255.511
869.408	272.745
869.537	239.149
869.665	305.894
869.793	234.553
869.921	274.553
870.049	244.979
870.177	246.468
870.305	275.979
870.433	221.553
870.562	254.809
870.690	230.809
870.818	232.915
870.946	247.106
871.074	276.979
871.202	253.447
871.330	257.383
871.458	219.766
871.587	236.000
871.715	242.745
871.843	231.830
871.971	233.894
872.099	241.957
872.227	230.000
872.355	252.638
872.483	248.638
872.612	247.000
872.740	249.000
872.868	236.681
872.996	241.468
873.124	236.404
873.252	239.830
873.380	238.979
873.508	230.936
873.637	247.064
873.765	234.702
873.893	292.298
874.021	248.745
874.149	230.468
874.277	238.957
874.405	239.106
874.533	242.085
874.662	1149.064
874.790	243.277
874.918	277.362
875.046	266.106
875.174	249.660
875.302	222.064
875.430	271.872
875.558	255.021
875.687	256.489
875.815	239.085
875.943	231.298
876.071	254.064
876.199	262.128
876.327	275.191
876.455	240.660
876.583	257.170
876.712	240.532
876.840	248.319
876.968	282.106
877.096	229.936
877.224	229.872
877.352	293.404
877.480	231.766
877.608	239.702
877.737	254.277
877.865	245.213
877.993	259.894
878.121	222.894
878.249	228.511
878.377	231.617
878.505	243.553
878.633	240.191
878.762	243.383
878.890	229.617
879.018	295.170
879.146	247.702
879.274	224.234
879.402	264.043
879.530	247.213
879.658	226.809
879.787	232.234
879.915	238.809
880.043	270.574
880.171	221.596
880.299	250.957
880.427	244.255
880.555	247.872
880.683	261.660
880.812	229.851
880.940	274.043
881.068	227.511
881.196	235.085
881.324	244.915
881.452	224.915
881.580	259.468
881.708	262.064
881.837	249.511
881.965	248.681
882.093	252.298
882.221	229.277
882.349	277.085
882.477	260.128
882.605	250.404
882.733	236.915
882.862	279.255
882.990	257.021
883.118	236.957
883.246	247.489
883.374	242.000
883.502	237.191
883.630	225.745
883.758	239.255
883.887	251.723
884.015	227.489
884.143	238.319
884.271	250.617
884.399	233.617
884.527	236.213
884.655	218.043
884.783	251.936
884.912	256.851
885.040	237.894
885.168	305.277
885.296	235.702
885.424	253.702
885.552	254.426
885.680	242.277
885.808	232.170
885.937	249.894
886.065	261.489
886.193	232.574
886.321	274.362
886.449	231.340
886.577	279.213
886.705	235.234
886.833	231.298
886.962	231.383
887.090	240.851
887.218	244.000
887.346	261.128
887.474	266.149
887.602	251.000
887.730	247.489
887.858	262.532
887.987	231.574
888.115	273.553
888.243	247.894
888.371	242.383
888.499	236.149
888.627	255.830
888.755	250.596
888.883	232.362
889.012	234.021
889.140	234.553
889.268	255.787
889.396	248.830
889.524	243.660
889.652	229.170
889.780	225.809
889.908	267.277
890.037	236.106
890.165	232.574
890.293	261.191
890.421	292.532
890.549	247.681
890.677	244.170
890.805	231.277
890.933	266.277
891.062	240.851
891.190	232.404
891.318	247.128
891.446	238.234
891.574	232.043
891.702	237.489
891.830	239.745
891.958	269.894
892.087	276.298
892.215	253.404
892.343	245.681
892.471	258.383
892.599	230.979
892.727	259.723
892.855	237.596
892.983	228.191
893.112	234.362
893.240	229.404
893.368	265.362
893.496	237.149
893.624	246.319
893.752	298.362
893.880	276.660
894.008	232.000
894.137	244.340
894.265	246.319
894.393	243.149
894.521	231.660
894.649	259.702
894.777	244.277
894.905	223.702
895.033	271.106
895.162	235.319
895.290	282.340
895.418	258.766
895.546	249.511
895.674	320.468
895.802	231.766
895.930	256.617
896.058	223.830
896.187	231.298
896.315	236.894
896.443	229.319
896.571	238.915
896.699	240.021
896.827	243.617
896.955	250.745
897.083	230.383
897.212	275.894
897.340	233.511
897.468	230.128
897.596	228.426
897.724	276.298
897.852	248.340
897.980	242.383
898.108	241.894
898.237	232.170
898.365	234.596
898.493	236.340
898.621	240.213
898.749	237.511
898.877	239.170
899.005	222.064
899.133	236.170
899.262	254.936
899.390	274.766
899.518	239.979
899.646	237.766
899.774	265.638
899.902	325.043
900.030	255.255
900.158	242.553
900.287	258.404
900.415	217.723
900.543	243.766
900.671	241.085
900.799	267.553
900.927	236.085
901.055	232.149
901.183	246.362
901.312	265.468
901.440	256.638
901.568	249.021
901.696	243.064
901.824	257.234
901.952	252.979
902.080	349.085
902.208	270.064
902.337	232.043
902.465	249.617
902.593	240.298
902.721	244.681
902.849	248.085
902.977	254.383
903.105	240.447
903.233	253.872
903.362	239.085
903.490	252.447
903.618	239.383
903.746	262.809
903.874	224.298
904.002	250.638
904.130	249.383
904.258	259.085
904.387	237.213
904.515	261.936
904.643	226.660
904.771	240.383
904.899	261.936
905.027	270.957
905.155	253.404
905.283	249.404
905.412	268.809
905.540	231.660
905.668	241.128
905.796	239.894
905.924	244.426
906.052	244.362
906.180	259.128
906.308	246.702
906.437	273.191
906.565	248.277
906.693	248.362
906.821	235.362
906.949	238.511
907.077	260.021
907.205	249.213
907.333	255.000
907.462	239.085
907.590	238.170
907.718	263.191
907.846	285.128
907.974	235.787
908.102	242.979
908.230	269.723
908.358	279.128
908.487	253.085
908.615	250.660
908.743	255.340
908.871	298.277
908.999	249.149
909.127	279.894
909.255	227.149
909.383	242.213
909.512	281.894
909.640	244.255
909.768	245.809
909.896	296.766
910.024	263.489
910.152	253.851
910.280	292.766
910.408	248.340
910.537	248.234
910.665	283.021
910.793	252.404
910.921	261.255
911.049	241.979
911.177	236.128
911.305	266.319
911.433	247.489
911.562	250.298
911.690	255.915
911.818	311.681
911.946	245.787
912.074	269.447
912.202	289.362
912.330	250.830
912.458	252.468
912.587	268.043
912.715	274.106
912.843	280.149
912.971	263.404
913.099	282.638
913.227	274.383
913.355	263.638
913.483	270.128
913.612	269.979
913.740	394.064
913.868	266.447
