90pol_90_100_at_750.00nm_cut_at_984.50Y_01.dat
24.04.2023
10:47:35
cut middle at Y: 984.50
top cursor: 1008 down cursor: 961 mean of: 47 lines , 2560 datapoints
wavelength(nm)	intensity[arb. units]
585.996	16939.191
586.124	16474.298
586.252	16298.702
586.380	16286.404
586.508	16366.596
586.637	16468.404
586.765	16528.489
586.893	16500.426
587.021	16512.532
587.149	16620.894
587.277	16518.723
587.405	16620.191
587.533	16613.894
587.662	16771.447
587.790	16695.511
587.918	16637.298
588.046	16706.766
588.174	16700.021
588.302	16716.255
588.430	16630.106
588.558	16613.638
588.687	16681.043
588.815	16653.362
588.943	16597.298
589.071	16566.532
589.199	16643.553
589.327	16636.702
589.455	16598.830
589.583	16732.830
589.712	16651.064
589.840	16594.766
589.968	16608.723
590.096	16608.468
590.224	16612.191
590.352	16597.660
590.480	16591.426
590.608	16595.787
590.737	16682.085
590.865	16629.638
590.993	16560.191
591.121	16650.872
591.249	16634.170
591.377	16604.638
591.505	16584.936
591.633	16663.830
591.762	16684.489
591.890	16779.064
592.018	16601.638
592.146	16670.213
592.274	16703.319
592.402	16679.191
592.530	16656.021
592.658	16937.511
592.787	16737.298
592.915	16932.596
593.043	16816.553
593.171	16845.106
593.299	16868.043
593.427	16903.064
593.555	16967.128
593.683	16922.000
593.812	17063.362
593.940	17000.511
594.068	17052.021
594.196	17205.511
594.324	17124.298
594.452	17200.830
594.580	17270.149
594.708	17247.553
594.837	17251.787
594.965	17335.106
595.093	17434.532
595.221	17430.149
595.349	17557.340
595.477	17544.872
595.605	17555.213
595.733	17562.766
595.862	17796.617
595.990	17618.511
596.118	17650.957
596.246	17864.830
596.374	17804.319
596.502	17786.255
596.630	17763.213
596.758	17875.489
596.887	17878.830
597.015	17854.511
597.143	17847.489
597.271	17900.191
597.399	17919.468
597.527	17859.298
597.655	17955.340
597.783	17870.574
597.912	17951.617
598.040	17903.511
598.168	17990.170
598.296	17907.021
598.424	17958.979
598.552	17945.574
598.680	17901.021
598.808	18010.021
598.937	17943.851
599.065	17853.723
599.193	17914.979
599.321	17951.404
599.449	17860.851
599.577	17833.830
599.705	17894.745
599.833	17826.447
599.962	17899.064
600.090	17836.426
600.218	17907.277
600.346	17922.362
600.474	17851.532
600.602	17929.213
600.730	17998.043
600.858	18044.340
600.987	18180.660
601.115	18035.957
601.243	18082.702
601.371	18127.936
601.499	18171.915
601.627	18254.298
601.755	18259.043
601.883	18356.532
602.012	18394.191
602.140	18352.000
602.268	18514.319
602.396	18523.340
602.524	18672.362
602.652	18682.000
602.780	18754.809
602.908	18771.574
603.037	18809.574
603.165	18865.830
603.293	18975.489
603.421	19055.915
603.549	19092.596
603.677	19256.681
603.805	19277.894
603.933	19348.426
604.062	19505.319
604.190	19464.468
604.318	19648.191
604.446	19605.000
604.574	19690.574
604.702	19800.979
604.830	19855.532
604.958	19871.234
605.087	19973.000
605.215	20010.170
605.343	20111.362
605.471	20200.064
605.599	20224.787
605.727	20280.000
605.855	20290.298
605.983	20329.872
606.112	20401.596
606.240	20423.234
606.368	20474.106
606.496	20647.085
606.624	20535.277
606.752	20607.106
606.880	20719.638
607.008	20809.830
607.137	20709.447
607.265	20597.234
607.393	20595.447
607.521	20722.043
607.649	20693.489
607.777	20613.574
607.905	20591.894
608.033	20506.872
608.162	20565.064
608.290	20538.553
608.418	20543.106
608.546	20494.170
608.674	20518.936
608.802	20487.468
608.930	20543.723
609.058	20558.723
609.187	20606.404
609.315	20586.872
609.443	20529.723
609.571	20611.660
609.699	20512.532
609.827	20508.000
609.955	20423.532
610.083	20416.766
610.212	20451.085
610.340	20475.191
610.468	20603.000
610.596	20585.532
610.724	20510.766
610.852	20510.532
610.980	20593.809
611.108	20575.128
611.237	20587.362
611.365	20631.000
611.493	20634.362
611.621	20713.383
611.749	20750.787
611.877	20727.489
612.005	20771.362
612.133	20897.085
612.262	20899.447
612.390	20984.447
612.518	21009.255
612.646	21200.851
612.774	21153.766
612.902	21230.702
613.030	21382.511
613.158	21498.000
613.287	21505.404
613.415	21495.128
613.543	21420.447
613.671	21404.298
613.799	21598.362
613.927	21511.532
614.055	21554.553
614.183	21727.681
614.312	21702.723
614.440	21817.149
614.568	21777.894
614.696	21909.574
614.824	22015.000
614.952	21961.553
615.080	21983.021
615.208	22132.085
615.337	22211.340
615.465	22267.745
615.593	22505.277
615.721	22637.830
615.849	22682.553
615.977	22703.340
616.105	22753.021
616.233	22701.830
616.362	22801.255
616.490	22808.426
616.618	22848.277
616.746	22918.979
616.874	22933.957
617.002	22885.532
617.130	22967.660
617.258	23125.213
617.387	23032.979
617.515	23089.617
617.643	23064.936
617.771	23045.064
617.899	23110.340
618.027	23089.553
618.155	23137.957
618.283	23141.660
618.412	23188.681
618.540	23242.319
618.668	23273.702
618.796	23263.894
618.924	23424.362
619.052	23267.362
619.180	23375.702
619.308	23372.660
619.437	23340.894
619.565	23356.787
619.693	23363.574
619.821	23404.383
619.949	23386.681
620.077	23474.617
620.205	23504.213
620.333	23553.340
620.462	23538.894
620.590	23564.298
620.718	23521.745
620.846	23608.957
620.974	23567.638
621.102	23601.894
621.230	23603.277
621.358	23637.915
621.487	23563.149
621.615	23608.596
621.743	23696.830
621.871	23630.085
621.999	23711.617
622.127	23630.894
622.255	23767.170
622.383	23689.894
622.512	23669.936
622.640	23849.383
622.768	23725.426
622.896	23706.234
623.024	23750.745
623.152	23739.660
623.280	23770.851
623.408	23662.617
623.537	23774.936
623.665	23674.957
623.793	23764.638
623.921	23725.128
624.049	23723.340
624.177	23782.021
624.305	23817.191
624.433	23801.936
624.562	23877.553
624.690	23821.064
624.818	23843.979
624.946	23949.340
625.074	23818.085
625.202	23875.426
625.330	23813.660
625.458	23874.596
625.587	23785.383
625.715	23819.638
625.843	23975.957
625.971	23853.574
626.099	23893.511
626.227	23937.766
626.355	23790.532
626.483	23972.702
626.612	23915.830
626.740	23958.745
626.868	24017.468
626.996	23965.766
627.124	23949.511
627.252	23988.766
627.380	24106.106
627.508	24080.574
627.637	24039.702
627.765	24102.915
627.893	24138.170
628.021	24172.255
628.149	24545.511
628.277	24612.936
628.405	24554.362
628.533	24448.894
628.662	24391.809
628.790	24443.745
628.918	24538.021
629.046	24618.596
629.174	24705.085
629.302	24949.043
629.430	24794.319
629.558	24761.234
629.687	24806.489
629.815	24810.553
629.943	24881.064
630.071	24959.809
630.199	25061.553
630.327	25041.319
630.455	25128.723
630.583	25245.085
630.712	25213.128
630.840	25260.745
630.968	25305.745
631.096	25300.234
631.224	25318.043
631.352	25395.830
631.480	25401.936
631.608	25476.043
631.737	25622.489
631.865	25705.596
631.993	25652.660
632.121	25743.106
632.249	25733.638
632.377	25668.830
632.505	25695.957
632.633	25626.255
632.762	25627.362
632.890	25749.043
633.018	25593.298
633.146	25736.128
633.274	25654.255
633.402	25617.021
633.530	25663.170
633.658	25775.617
633.787	25686.660
633.915	25631.809
634.043	25646.723
634.171	25636.426
634.299	25653.404
634.427	25663.574
634.555	25691.681
634.683	25585.596
634.812	25620.872
634.940	25557.617
635.068	25513.766
635.196	25514.702
635.324	25421.681
635.452	25520.702
635.580	25437.255
635.708	25397.340
635.837	25427.255
635.965	25421.702
636.093	25315.128
636.221	25274.702
636.349	25362.277
636.477	25317.638
636.605	25451.319
636.733	25154.085
636.862	25160.936
636.990	25123.596
637.118	25129.723
637.246	25164.617
637.374	25109.319
637.502	25157.362
637.630	25044.553
637.758	25075.872
637.887	25051.830
638.015	24998.085
638.143	25035.383
638.271	24944.234
638.399	24950.128
638.527	24924.000
638.655	24984.383
638.783	25027.553
638.912	24946.894
639.040	24938.489
639.168	24958.660
639.296	24964.596
639.424	25064.638
639.552	24875.255
639.680	25060.319
639.808	24995.574
639.937	24983.000
640.065	24992.894
640.193	25028.894
640.321	24965.872
640.449	25013.426
640.577	25150.298
640.705	24956.191
640.833	25091.702
640.962	24932.574
641.090	25092.979
641.218	25072.064
641.346	25150.553
641.474	25146.681
641.602	25102.383
641.730	25237.851
641.858	25241.809
641.987	25260.468
642.115	25258.766
642.243	25298.277
642.371	25359.383
642.499	25355.617
642.627	25407.213
642.755	25472.106
642.883	25425.362
643.012	25532.064
643.140	25492.298
643.268	25518.702
643.396	25560.830
643.524	25708.681
643.652	25703.957
643.780	25613.830
643.908	25769.553
644.037	25786.362
644.165	25734.723
644.293	25698.085
644.421	25788.766
644.549	25776.915
644.677	25877.277
644.805	25839.043
644.933	25819.851
645.062	25890.319
645.190	25895.553
645.318	25854.447
645.446	25820.979
645.574	25925.000
645.702	25905.660
645.830	26131.574
645.958	25901.511
646.087	26147.404
646.215	25861.489
646.343	26083.936
646.471	25975.957
646.599	25993.277
646.727	25885.617
646.855	25820.532
646.983	25926.872
647.112	25892.723
647.240	26022.298
647.368	25868.809
647.496	25885.957
647.624	25742.170
647.752	25825.191
647.880	25736.043
648.008	25810.383
648.137	25774.489
648.265	25767.213
648.393	25746.574
648.521	25733.340
648.649	25740.426
648.777	25704.872
648.905	25671.404
649.033	25558.277
649.162	25608.638
649.290	25589.128
649.418	25493.915
649.546	25497.574
649.674	25480.957
649.802	25422.234
649.930	25547.426
650.058	25352.787
650.187	25366.213
650.315	25345.277
650.443	25317.149
650.571	25294.149
650.699	25359.170
650.827	25268.787
650.955	25274.894
651.083	25313.574
651.212	25298.319
651.340	25310.638
651.468	25152.085
651.596	25155.234
651.724	25102.362
651.852	25159.468
651.980	25133.255
652.108	25179.872
652.237	25135.106
652.365	25183.277
652.493	25063.596
652.621	25114.617
652.749	25135.234
652.877	25014.787
653.005	25070.574
653.133	24927.255
653.262	25020.681
653.390	24909.830
653.518	25025.426
653.646	24977.000
653.774	25117.021
653.902	24985.043
654.030	24956.426
654.158	24910.298
654.287	24917.404
654.415	24854.106
654.543	24892.830
654.671	24875.723
654.799	24893.043
654.927	24804.404
655.055	24810.021
655.183	24770.362
655.312	24725.383
655.440	24776.809
655.568	24735.021
655.696	24789.745
655.824	24820.106
655.952	24738.745
656.080	24620.106
656.208	24744.106
656.337	24556.191
656.465	24610.426
656.593	24542.830
656.721	24407.191
656.849	24467.362
656.977	24444.489
657.105	24386.277
657.233	24315.809
657.362	24311.170
657.490	24216.617
657.618	24203.574
657.746	24189.957
657.874	24132.362
658.002	24125.447
658.130	24113.170
658.258	24064.191
658.387	24052.426
658.515	23906.872
658.643	23918.553
658.771	23927.149
658.899	23952.128
659.027	23921.957
659.155	23921.574
659.283	23979.085
659.412	23807.979
659.540	23824.404
659.668	23703.723
659.796	23752.872
659.924	23740.021
660.052	23676.277
660.180	23649.191
660.308	23511.064
660.437	23558.915
660.565	23559.000
660.693	23470.723
660.821	23465.447
660.949	23459.447
661.077	23383.085
661.205	23457.574
661.333	23407.957
661.462	23577.489
661.590	23435.511
661.718	23469.021
661.846	23431.872
661.974	23544.468
662.102	23338.383
662.230	23347.532
662.358	23239.957
662.487	23279.915
662.615	23252.468
662.743	23261.106
662.871	23182.596
662.999	23209.745
663.127	23140.234
663.255	23327.404
663.383	23306.000
663.512	23191.340
663.640	23209.213
663.768	23228.766
663.896	23257.702
664.024	23300.277
664.152	23230.915
664.280	23284.191
664.408	23316.191
664.537	23291.468
664.665	23273.043
664.793	23182.702
664.921	23145.426
665.049	23199.936
665.177	23209.468
665.305	23264.255
665.433	23180.638
665.562	23175.128
665.690	23203.851
665.818	23306.809
665.946	23186.957
666.074	23162.085
666.202	23232.872
666.330	23168.617
666.458	23236.298
666.587	23139.787
666.715	23142.617
666.843	23167.000
666.971	23173.872
667.099	23100.383
667.227	23131.362
667.355	23130.787
667.483	23118.255
667.612	23149.128
667.740	23142.000
667.868	23164.574
667.996	23140.723
668.124	23037.957
668.252	23075.319
668.380	23080.574
668.508	23052.128
668.637	23024.149
668.765	23032.362
668.893	22971.106
669.021	22868.830
669.149	22916.660
669.277	22978.298
669.405	22935.936
669.533	22859.383
669.662	23099.745
669.790	22885.277
669.918	22907.340
670.046	22764.681
670.174	22803.596
670.302	22792.617
670.430	22691.128
670.558	22711.277
670.687	22632.745
670.815	22732.511
670.943	22529.723
671.071	22439.787
671.199	22516.383
671.327	22384.000
671.455	22369.277
671.583	22304.426
671.712	22447.106
671.840	22281.596
671.968	22158.660
672.096	22152.298
672.224	22070.638
672.352	22238.319
672.480	22069.362
672.608	21922.660
672.737	21900.787
672.865	21993.021
672.993	21775.064
673.121	21707.851
673.249	21639.298
673.377	21537.191
673.505	21559.085
673.633	21423.894
673.762	21346.617
673.890	21342.915
674.018	21541.085
674.146	21266.064
674.274	21228.106
674.402	21326.830
674.530	21172.106
674.658	21055.191
674.787	20979.787
674.915	20935.702
675.043	20950.872
675.171	20864.319
675.299	20775.468
675.427	20695.809
675.555	20583.638
675.683	20562.000
675.812	20519.404
675.940	20511.809
676.068	20475.830
676.196	20337.319
676.324	20340.830
676.452	20278.404
676.580	20097.298
676.708	20166.766
676.837	20104.851
676.965	20052.191
677.093	20040.787
677.221	19891.319
677.349	19873.191
677.477	19896.426
677.605	19818.085
677.733	19810.383
677.862	19631.149
677.990	19622.362
678.118	19578.894
678.246	19559.723
678.374	19575.362
678.502	19383.936
678.630	19409.319
678.758	19335.277
678.887	19293.404
679.015	19239.340
679.143	19148.106
679.271	19165.596
679.399	19195.426
679.527	19056.277
679.655	19021.128
679.783	19029.362
679.912	19055.340
680.040	18927.766
680.168	18848.319
680.296	18906.872
680.424	18783.468
680.552	18807.000
680.680	18837.745
680.808	18727.383
680.937	18671.574
681.065	18611.447
681.193	18613.426
681.321	18586.383
681.449	18583.021
681.577	18622.596
681.705	18519.745
681.833	18494.426
681.962	18389.936
682.090	18545.021
682.218	18417.957
682.346	18340.043
682.474	18392.787
682.602	18328.340
682.730	18337.957
682.858	18256.851
682.987	18416.213
683.115	18320.149
683.243	18223.277
683.371	18206.553
683.499	18245.553
683.627	18256.468
683.755	18222.745
683.883	18260.489
684.012	18132.915
684.140	18095.511
684.268	18065.936
684.396	18064.511
684.524	18070.936
684.652	18060.830
684.780	17946.000
684.908	17991.681
685.037	17931.745
685.165	17862.447
685.293	17900.809
685.421	17812.489
685.549	17735.234
685.677	17772.787
685.805	17854.447
685.933	17744.298
686.062	17638.064
686.190	17612.574
686.318	17607.872
686.446	17519.851
686.574	17505.936
686.702	17595.468
686.830	17462.574
686.958	17370.915
687.087	17354.383
687.215	17443.745
687.343	17305.234
687.471	17256.489
687.599	17164.723
687.727	17354.106
687.855	17210.191
687.983	17176.809
688.112	17225.638
688.240	17086.319
688.368	16962.957
688.496	17014.362
688.624	17062.723
688.752	16922.681
688.880	16882.723
689.008	16850.936
689.137	16787.723
689.265	16768.170
689.393	16677.872
689.521	16645.064
689.649	16574.383
689.777	16517.319
689.905	16479.191
690.033	16465.426
690.162	16419.340
690.290	16360.894
690.418	16304.128
690.546	16334.234
690.674	16326.149
690.802	16175.149
690.930	16173.255
691.058	16131.681
691.187	16074.574
691.315	16043.362
691.443	16008.787
691.571	15908.149
691.699	15898.085
691.827	15852.106
691.955	15771.404
692.083	15712.489
692.212	15837.830
692.340	15666.340
692.468	15696.021
692.596	15613.617
692.724	15694.426
692.852	15460.043
692.980	15573.574
693.108	15394.149
693.237	15336.723
693.365	15301.723
693.493	15257.681
693.621	15179.021
693.749	15180.064
693.877	15097.617
694.005	15181.213
694.133	15035.915
694.262	15041.872
694.390	14935.404
694.518	14928.021
694.646	14885.936
694.774	14857.447
694.902	14891.638
695.030	14802.596
695.158	14641.872
695.287	14645.915
695.415	14606.383
695.543	14582.362
695.671	14592.447
695.799	14480.489
695.927	14424.319
696.055	14387.021
696.183	14348.064
696.312	14314.617
696.440	14421.702
696.568	14291.957
696.696	14265.894
696.824	14160.681
696.952	14083.106
697.080	14078.021
697.208	13986.553
697.337	14005.766
697.465	13924.979
697.593	13855.426
697.721	13819.149
697.849	13759.851
697.977	13791.617
698.105	13763.340
698.233	13640.170
698.362	13632.255
698.490	13607.064
698.618	13549.064
698.746	13574.553
698.874	13472.638
699.002	13623.745
699.130	13355.766
699.258	13406.617
699.387	13242.021
699.515	13244.128
699.643	13165.404
699.771	13203.277
699.899	13101.213
700.027	13097.277
700.155	12988.043
700.283	12979.426
700.412	12995.894
700.540	12879.489
700.668	12839.660
700.796	12820.660
700.924	12724.362
701.052	12709.000
701.180	12703.638
701.308	12685.362
701.437	12529.213
701.565	12446.404
701.693	12415.787
701.821	12371.383
701.949	12361.000
702.077	12292.298
702.205	12184.468
702.333	12192.213
702.462	12086.128
702.590	12081.766
702.718	12032.255
702.846	11944.298
702.974	11906.255
703.102	11884.723
703.230	11936.617
703.358	11801.383
703.487	11694.617
703.615	11860.255
703.743	11643.723
703.871	11527.298
703.999	11555.596
704.127	11585.298
704.255	11298.404
704.383	11523.915
704.512	11349.851
704.640	11230.872
704.768	11168.128
704.896	11180.894
705.024	11021.319
705.152	11112.170
705.280	11009.170
705.408	10904.915
705.537	10875.979
705.665	10748.170
705.793	10760.128
705.921	10695.106
706.049	10660.021
706.177	10558.702
706.305	10551.596
706.433	10591.957
706.562	10482.617
706.690	10335.191
706.818	10299.830
706.946	10544.957
707.074	10293.404
707.202	10168.298
707.330	10208.915
707.458	10141.638
707.587	10051.128
707.715	10042.064
707.843	10058.830
707.971	9990.298
708.099	10000.362
708.227	9877.404
708.355	9846.787
708.483	9740.298
708.612	9703.255
708.740	9719.979
708.868	9764.787
708.996	9682.404
709.124	9665.957
709.252	9577.319
709.380	9514.702
709.508	9514.532
709.637	9438.426
709.765	9414.511
709.893	9387.787
710.021	9353.213
710.149	9298.383
710.277	9301.915
710.405	9218.936
710.533	9223.872
710.662	9185.234
710.790	9164.426
710.918	9132.404
711.046	9130.894
711.174	9037.021
711.302	9071.298
711.430	9138.830
711.558	8935.596
711.687	8937.872
711.815	8932.787
711.943	8866.426
712.071	8848.915
712.199	8848.787
712.327	8833.511
712.455	8746.255
712.583	8780.766
712.712	8686.043
712.840	8670.447
712.968	8611.128
713.096	8700.191
713.224	8556.809
713.352	8553.085
713.480	8514.128
713.608	8487.745
713.737	8498.851
713.865	8456.170
713.993	8473.404
714.121	8369.106
714.249	8383.745
714.377	8422.362
714.505	8358.553
714.633	8450.830
714.762	8308.234
714.890	8215.574
715.018	8228.489
715.146	8169.085
715.274	8236.723
715.402	8293.319
715.530	8175.979
715.658	8064.957
715.787	8047.106
715.915	8215.851
716.043	7998.213
716.171	8030.915
716.299	8059.894
716.427	7963.532
716.555	7918.511
716.683	7908.851
716.812	7862.702
716.940	7835.447
717.068	7734.362
717.196	7921.447
717.324	7839.787
717.452	7755.617
717.580	7650.319
717.708	7608.745
717.837	7698.085
717.965	7556.915
718.093	7575.021
718.221	7484.149
718.349	7530.979
718.477	7511.362
718.605	7521.383
718.733	7410.553
718.862	7395.319
718.990	7353.000
719.118	7336.340
719.246	7277.915
719.374	7338.085
719.502	7260.106
719.630	7368.723
719.758	7176.043
719.887	7120.617
720.015	7326.894
720.143	7016.745
720.271	7022.872
720.399	7033.617
720.527	7055.298
720.655	7030.362
720.783	6985.723
720.912	6917.319
721.040	6888.085
721.168	6815.915
721.296	6886.404
721.424	6782.660
721.552	6704.064
721.680	6668.851
721.808	6689.936
721.937	6651.617
722.065	6730.404
722.193	6725.213
722.321	6559.574
722.449	6502.234
722.577	6482.617
722.705	6417.532
722.833	6445.830
722.962	6446.191
723.090	6328.213
723.218	6241.872
723.346	6316.447
723.474	6266.787
723.602	6357.851
723.730	6260.000
723.858	6354.043
723.987	6172.809
724.115	6192.596
724.243	6113.617
724.371	6105.000
724.499	6069.532
724.627	5948.404
724.755	5928.383
724.883	5909.234
725.012	5902.681
725.140	5925.809
725.268	5857.021
725.396	5782.915
725.524	5744.574
725.652	5763.404
725.780	5725.021
725.908	5736.872
726.037	5835.872
726.165	5634.809
726.293	5589.936
726.421	5611.894
726.549	5528.319
726.677	5510.872
726.805	5506.319
726.933	5447.468
727.062	5502.596
727.190	5436.298
727.318	5340.936
727.446	5378.915
727.574	5340.149
727.702	5416.106
727.830	5240.319
727.958	5353.149
728.087	5252.021
728.215	5320.383
728.343	5258.489
728.471	5187.532
728.599	5164.702
728.727	5231.362
728.855	5072.681
728.983	5086.064
729.112	5053.319
729.240	4978.234
729.368	5019.596
729.496	5012.851
729.624	4975.957
729.752	4915.383
729.880	4937.723
730.008	4865.191
730.137	4857.596
730.265	5044.106
730.393	4802.574
730.521	4918.851
730.649	4811.255
730.777	4796.468
730.905	4761.234
731.033	4811.915
731.162	4903.277
731.290	4826.021
731.418	4891.468
731.546	4827.872
731.674	4700.809
731.802	4717.511
731.930	4610.064
732.058	4566.532
732.187	4557.043
732.315	4506.489
732.443	4485.319
732.571	4636.915
732.699	4553.915
732.827	4500.362
732.955	4414.298
733.083	4387.277
733.212	4450.255
733.340	4459.766
733.468	4468.277
733.596	4328.255
733.724	4354.000
733.852	4295.574
733.980	4279.553
734.108	4483.957
734.237	4344.149
734.365	4349.638
734.493	4241.064
734.621	4199.021
734.749	4202.574
734.877	4200.574
735.005	4227.596
735.133	4166.809
735.262	4229.894
735.390	4100.489
735.518	4233.723
735.646	4055.851
735.774	4035.979
735.902	4042.021
736.030	4013.894
736.158	4049.213
736.287	3952.766
736.415	4168.362
736.543	3956.340
736.671	3921.298
736.799	3895.702
736.927	3980.702
737.055	3904.936
737.183	3985.511
737.312	3929.085
737.440	3872.745
737.568	3846.532
737.696	3830.511
737.824	3854.426
737.952	3801.319
738.080	3756.915
738.208	3767.000
738.337	3754.596
738.465	3801.617
738.593	3651.957
738.721	3662.085
738.849	3663.681
738.977	3625.936
739.105	3673.383
739.233	3589.489
739.362	3617.170
739.490	3528.872
739.618	3518.872
739.746	3530.617
739.874	3698.979
740.002	3590.745
740.130	3562.681
740.258	3460.383
740.387	3390.787
740.515	3525.830
740.643	3368.574
740.771	3433.447
740.899	3403.064
741.027	3401.787
741.155	3473.915
741.283	3311.149
741.412	3285.936
741.540	3317.574
741.668	3368.085
741.796	3403.851
741.924	3287.511
742.052	3213.681
742.180	3380.638
742.308	3189.511
742.437	3197.043
742.565	3277.617
742.693	3355.383
742.821	3233.511
742.949	3193.638
743.077	3139.447
743.205	3101.234
743.333	3112.426
743.462	3107.447
743.590	3118.894
743.718	3011.191
743.846	3014.064
743.974	3046.830
744.102	3206.383
744.230	3031.255
744.358	2983.766
744.487	2929.021
744.615	2967.553
744.743	2930.638
744.871	2864.766
744.999	2970.638
745.127	2940.681
745.255	2835.830
745.383	2878.511
745.512	2901.085
745.640	2800.851
745.768	2820.128
745.896	2846.000
746.024	2754.596
746.152	2779.404
746.280	2735.000
746.408	2804.766
746.537	2825.681
746.665	2706.000
746.793	2740.723
746.921	2704.000
747.049	2885.830
747.177	2748.915
747.305	2704.660
747.433	2717.872
747.562	2647.064
747.690	2692.489
747.818	2691.638
747.946	2604.511
748.074	2700.468
748.202	2641.489
748.330	2714.383
748.458	2585.383
748.587	2555.638
748.715	2556.277
748.843	2578.745
748.971	2579.489
749.099	2577.234
749.227	2590.255
749.355	2533.447
749.483	2510.234
749.612	2531.979
749.740	2539.553
749.868	2537.511
749.996	2524.553
750.124	2489.362
750.252	2504.979
750.380	2529.936
750.508	2500.511
750.637	2480.872
750.765	2517.447
750.893	2495.936
751.021	2504.191
751.149	2526.617
751.277	2516.043
751.405	2491.957
751.533	2526.191
751.662	2446.830
751.790	2465.745
751.918	2402.660
752.046	2420.553
752.174	2386.149
752.302	2460.064
752.430	2396.936
752.558	2348.255
752.687	2344.383
752.815	2346.723
752.943	2319.340
753.071	2296.766
753.199	2317.723
753.327	2367.830
753.455	2305.404
753.583	2270.170
753.712	2261.830
753.840	2247.851
753.968	2232.617
754.096	2243.681
754.224	2203.021
754.352	2205.787
754.480	2206.553
754.608	2211.574
754.737	2169.362
754.865	2213.681
754.993	2147.447
755.121	2156.149
755.249	2234.298
755.377	2131.064
755.505	2123.298
755.633	2133.106
755.762	2089.383
755.890	2174.553
756.018	2135.149
756.146	2059.745
756.274	2083.277
756.402	2032.277
756.530	2043.574
756.658	2050.979
756.787	2038.234
756.915	1986.957
757.043	1999.787
757.171	2002.681
757.299	1962.830
757.427	1959.106
757.555	1949.213
757.683	1978.489
757.812	1913.085
757.940	1911.106
758.068	1905.298
758.196	1893.255
758.324	1873.468
758.452	1973.532
758.580	1857.809
758.708	1866.851
758.837	1836.383
758.965	1905.489
759.093	1798.426
759.221	1797.213
759.349	1804.234
759.477	1788.255
759.605	1772.809
759.733	1760.489
759.862	1779.170
759.990	1747.979
760.118	1754.957
760.246	1718.149
760.374	1729.255
760.502	1727.213
760.630	1702.532
760.758	1694.255
760.887	1650.681
761.015	1668.532
761.143	1645.872
761.271	1657.638
761.399	1630.447
761.527	1638.000
761.655	1620.596
761.783	1610.596
761.912	1598.426
762.040	1574.617
762.168	1611.894
762.296	1572.298
762.424	1565.511
762.552	1568.468
762.680	1615.702
762.808	1520.638
762.937	1534.468
763.065	1560.979
763.193	1561.447
763.321	1526.553
763.449	1484.830
763.577	1489.128
763.705	1480.660
763.833	1551.191
763.962	1460.319
764.090	1451.915
764.218	1476.915
764.346	1459.362
764.474	1407.660
764.602	1424.234
764.730	1403.255
764.858	1438.553
764.987	1409.234
765.115	1443.000
765.243	1371.255
765.371	1364.085
765.499	1344.383
765.627	1351.489
765.755	1333.191
765.883	1348.021
766.012	1345.021
766.140	1317.830
766.268	1315.277
766.396	1295.511
766.524	1308.426
766.652	1301.128
766.780	1284.787
766.908	1292.532
767.037	1270.000
767.165	1280.617
767.293	1345.660
767.421	1267.106
767.549	1256.106
767.677	1255.213
767.805	1232.723
767.933	1242.255
768.062	1260.404
768.190	1231.255
768.318	1216.936
768.446	1220.681
768.574	1233.255
768.702	1212.553
768.830	1206.043
768.958	1197.511
769.087	1169.021
769.215	1164.106
769.343	1178.340
769.471	1154.596
769.599	1201.574
769.727	1172.468
769.855	1155.170
769.983	1139.596
770.112	1131.255
770.240	1122.447
770.368	1111.085
770.496	1095.489
770.624	1109.745
770.752	1114.936
770.880	1150.660
771.008	1108.447
771.137	1096.617
771.265	1145.787
771.393	1098.170
771.521	1080.149
771.649	1081.957
771.777	1073.085
771.905	1075.489
772.033	1086.702
772.162	1096.447
772.290	1059.851
772.418	1099.468
772.546	1065.149
772.674	1042.170
772.802	1057.809
772.930	1086.957
773.058	1020.553
773.187	1037.830
773.315	1007.362
773.443	1023.851
773.571	1020.511
773.699	1007.745
773.827	994.851
773.955	1026.277
774.083	1026.809
774.212	995.660
774.340	1036.085
774.468	978.383
774.596	987.043
774.724	985.128
774.852	976.894
774.980	970.191
775.108	973.319
775.237	973.766
775.365	959.170
775.493	944.745
775.621	954.511
775.749	953.298
775.877	949.745
776.005	943.319
776.133	944.745
776.262	952.468
776.390	915.106
776.518	968.468
776.646	920.298
776.774	938.085
776.902	929.234
777.030	913.596
777.158	917.128
777.287	924.851
777.415	891.213
777.543	880.149
777.671	883.681
777.799	879.255
777.927	875.702
778.055	883.447
778.183	876.638
778.312	843.085
778.440	852.149
778.568	869.085
778.696	855.532
778.824	868.106
778.952	855.362
779.080	835.872
779.208	867.723
779.337	845.277
779.465	839.447
779.593	839.340
779.721	843.787
779.849	827.809
779.977	806.702
780.105	802.787
780.233	829.702
780.362	831.128
780.490	834.766
780.618	795.447
780.746	801.681
780.874	787.043
781.002	800.936
781.130	772.830
781.258	771.851
781.387	779.574
781.515	792.830
781.643	767.489
781.771	800.043
781.899	771.957
782.027	803.936
782.155	773.340
782.283	757.213
782.412	755.064
782.540	750.511
782.668	762.277
782.796	721.298
782.924	762.149
783.052	727.064
783.180	757.723
783.308	719.766
783.437	730.979
783.565	720.681
783.693	722.830
783.821	723.660
783.949	705.468
784.077	731.638
784.205	707.766
784.333	752.511
784.462	683.255
784.590	702.468
784.718	704.979
784.846	685.553
784.974	715.681
785.102	738.511
785.230	685.298
785.358	728.277
785.487	695.511
785.615	686.277
785.743	673.638
785.871	674.149
785.999	658.170
786.127	648.277
786.255	674.319
786.383	692.830
786.512	674.383
786.640	667.234
786.768	668.532
786.896	642.766
787.024	649.404
787.152	651.553
787.280	649.085
787.408	630.936
787.537	656.894
787.665	628.362
787.793	665.468
787.921	645.745
788.049	628.277
788.177	609.574
788.305	617.702
788.433	647.149
788.562	608.851
788.690	597.255
788.818	613.511
788.946	617.106
789.074	594.170
789.202	624.745
789.330	617.574
789.458	594.149
789.587	651.809
789.715	598.447
789.843	595.511
789.971	591.532
790.099	576.085
790.227	597.447
790.355	584.511
790.483	612.064
790.612	583.681
790.740	579.894
790.868	601.979
790.996	577.872
791.124	567.830
791.252	570.894
791.380	580.766
791.508	587.660
791.637	557.532
791.765	550.426
791.893	553.468
792.021	561.000
792.149	551.766
792.277	565.149
792.405	541.255
792.533	565.957
792.662	534.617
792.790	539.915
792.918	553.851
793.046	544.830
793.174	561.255
793.302	546.340
793.430	543.043
793.558	535.723
793.687	553.723
793.815	540.362
793.943	547.681
794.071	555.745
794.199	523.979
794.327	533.894
794.455	602.340
794.583	620.468
794.712	514.723
794.840	519.064
794.968	521.383
795.096	541.319
795.224	496.319
795.352	501.787
795.480	542.617
795.608	520.553
795.737	513.915
795.865	510.021
795.993	488.298
796.121	485.894
796.249	490.255
796.377	517.213
796.505	497.128
796.633	477.936
796.762	480.745
796.890	494.979
797.018	512.383
797.146	469.255
797.274	479.723
797.402	482.000
797.530	489.426
797.658	471.851
797.787	516.319
797.915	478.574
798.043	487.936
798.171	460.191
798.299	474.383
798.427	460.894
798.555	466.979
798.683	432.766
798.812	466.426
798.940	522.809
799.068	452.936
799.196	497.532
799.324	454.128
799.452	460.851
799.580	439.468
799.708	501.021
799.837	432.915
799.965	442.106
800.093	459.298
800.221	420.021
800.349	436.319
800.477	440.043
800.605	446.043
800.733	444.489
800.862	448.234
800.990	463.979
801.118	417.404
801.246	418.191
801.374	439.936
801.502	421.745
801.630	412.745
801.758	425.106
801.887	443.660
802.015	415.936
802.143	403.638
802.271	421.383
802.399	422.447
802.527	396.128
802.655	442.213
802.783	454.830
802.912	414.809
803.040	408.064
803.168	386.851
803.296	385.213
803.424	409.064
803.552	399.660
803.680	403.277
803.808	410.787
803.937	398.809
804.065	384.170
804.193	390.617
804.321	441.447
804.449	377.255
804.577	385.723
804.705	394.106
804.833	417.809
804.962	388.043
805.090	378.340
805.218	396.851
805.346	393.702
805.474	395.915
805.602	407.915
805.730	379.894
805.858	367.191
805.987	390.149
806.115	387.213
806.243	386.681
806.371	413.681
806.499	483.021
806.627	497.362
806.755	472.106
806.883	379.447
807.012	370.553
807.140	395.957
807.268	381.894
807.396	387.915
807.524	358.957
807.652	363.426
807.780	425.596
807.908	368.298
808.037	406.532
808.165	396.915
808.293	367.383
808.421	410.532
808.549	358.021
808.677	356.447
808.805	396.213
808.933	361.255
809.062	375.957
809.190	417.234
809.318	353.574
809.446	354.957
809.574	407.149
809.702	345.043
809.830	373.234
809.958	363.979
810.087	357.915
810.215	377.532
810.343	363.255
810.471	361.766
810.599	347.723
810.727	346.915
810.855	335.979
810.983	342.191
811.112	356.809
811.240	345.255
811.368	361.957
811.496	386.660
811.624	356.426
811.752	339.574
811.880	346.957
812.008	334.787
812.137	355.404
812.265	319.319
812.393	359.277
812.521	360.553
812.649	345.085
812.777	337.702
812.905	371.064
813.033	320.128
813.162	330.702
813.290	326.319
813.418	345.149
813.546	325.872
813.674	318.489
813.802	343.872
813.930	309.277
814.058	317.191
814.187	339.298
814.315	322.404
814.443	335.128
814.571	341.064
814.699	350.085
814.827	320.957
814.955	323.596
815.083	349.043
815.212	346.064
815.340	357.489
815.468	317.596
815.596	324.064
815.724	340.128
815.852	314.149
815.980	318.830
816.108	321.128
816.237	312.021
816.365	322.319
816.493	330.787
816.621	313.681
816.749	322.957
816.877	329.574
817.005	330.426
817.133	327.851
817.262	311.170
817.390	315.255
817.518	313.830
817.646	325.596
817.774	305.511
817.902	310.894
818.030	304.489
818.158	350.894
818.287	328.851
818.415	301.723
818.543	310.213
818.671	329.723
818.799	305.234
818.927	319.809
819.055	316.213
819.183	303.894
819.312	307.255
819.440	297.447
819.568	296.085
819.696	308.787
819.824	320.830
819.952	296.468
820.080	305.915
820.208	304.979
820.337	295.191
820.465	330.234
820.593	301.787
820.721	301.106
820.849	302.596
820.977	298.170
821.105	301.872
821.233	274.191
821.362	314.979
821.490	286.723
821.618	289.277
821.746	287.170
821.874	303.447
822.002	289.064
822.130	299.872
822.258	281.149
822.387	284.638
822.515	304.447
822.643	300.574
822.771	308.362
822.899	290.702
823.027	331.872
823.155	281.064
823.283	273.638
823.412	294.489
823.540	291.660
823.668	329.234
823.796	277.170
823.924	312.043
824.052	325.723
824.180	299.362
824.308	277.745
824.437	279.149
824.565	281.723
824.693	302.660
824.821	301.021
824.949	295.340
825.077	284.809
825.205	319.383
825.333	294.043
825.462	304.404
825.590	281.447
825.718	304.128
825.846	283.489
825.974	271.191
826.102	276.574
826.230	272.340
826.358	279.745
826.487	277.340
826.615	311.787
826.743	267.617
826.871	294.489
826.999	332.830
827.127	283.447
827.255	286.957
827.383	269.617
827.512	297.532
827.640	269.255
827.768	259.234
827.896	286.447
828.024	274.021
828.152	275.574
828.280	272.106
828.408	271.894
828.537	271.957
828.665	280.617
828.793	276.894
828.921	265.574
829.049	292.298
829.177	273.723
829.305	269.830
829.433	278.447
829.562	289.000
829.690	264.426
829.818	298.723
829.946	276.894
830.074	280.638
830.202	287.745
830.330	295.085
830.458	308.830
830.587	267.532
830.715	277.979
830.843	268.404
830.971	282.149
831.099	296.319
831.227	266.702
831.355	274.383
831.483	281.574
831.612	298.702
831.740	273.000
831.868	273.766
831.996	259.787
832.124	264.638
832.252	251.596
832.380	278.468
832.508	319.000
832.637	261.043
832.765	267.489
832.893	301.021
833.021	257.170
833.149	257.191
833.277	264.936
833.405	265.064
833.533	254.681
833.662	265.809
833.790	263.553
833.918	267.702
834.046	300.787
834.174	267.383
834.302	261.979
834.430	254.681
834.558	268.851
834.687	272.936
834.815	255.128
834.943	266.106
835.071	264.766
835.199	265.255
835.327	279.000
835.455	250.085
835.583	293.277
835.712	248.085
835.840	253.000
835.968	258.340
836.096	304.149
836.224	270.745
836.352	242.638
836.480	271.957
836.608	264.234
836.737	251.362
836.865	249.936
836.993	259.851
837.121	263.298
837.249	253.532
837.377	276.213
837.505	266.787
837.633	251.872
837.762	253.213
837.890	287.872
838.018	288.426
838.146	300.723
838.274	268.149
838.402	278.085
838.530	254.149
838.658	242.340
838.787	263.617
838.915	261.255
839.043	247.319
839.171	275.702
839.299	244.043
839.427	254.787
839.555	257.106
839.683	271.851
839.812	283.298
839.940	245.340
840.068	267.851
840.196	268.277
840.324	258.489
840.452	258.447
840.580	291.255
840.708	258.277
840.837	283.745
840.965	243.553
841.093	258.404
841.221	249.936
841.349	262.426
841.477	263.660
841.605	262.766
841.733	253.149
841.862	257.255
841.990	300.149
842.118	237.766
842.246	249.340
842.374	256.213
842.502	230.723
842.630	269.723
842.758	269.617
842.887	246.596
843.015	252.426
843.143	271.404
843.271	249.085
843.399	290.404
843.527	263.830
843.655	238.809
843.783	246.319
843.912	237.702
844.040	280.362
844.168	240.298
844.296	243.447
844.424	238.106
844.552	259.702
844.680	265.128
844.808	265.638
844.937	242.255
845.065	249.681
845.193	264.660
845.321	252.340
845.449	247.830
845.577	245.702
845.705	243.596
845.833	240.064
845.962	258.362
846.090	235.106
846.218	250.489
846.346	259.596
846.474	261.723
846.602	245.170
846.730	283.064
846.858	259.000
846.987	245.298
847.115	235.383
847.243	271.723
847.371	263.128
847.499	260.787
847.627	242.532
847.755	238.766
847.883	254.170
848.012	253.043
848.140	242.468
848.268	264.979
848.396	244.745
848.524	266.596
848.652	227.255
848.780	238.851
848.908	252.915
849.037	238.723
849.165	252.255
849.293	253.170
849.421	264.915
849.549	249.319
849.677	249.532
849.805	245.851
849.933	256.532
850.062	244.915
850.190	243.766
850.318	251.085
850.446	233.170
850.574	232.979
850.702	243.872
850.830	244.660
850.958	259.745
851.087	236.064
851.215	250.213
851.343	244.128
851.471	240.043
851.599	248.723
851.727	247.936
851.855	294.085
851.983	250.553
852.112	250.426
852.240	233.170
852.368	244.447
852.496	236.468
852.624	230.830
852.752	245.043
852.880	223.489
853.008	242.915
853.137	253.787
853.265	257.915
853.393	243.936
853.521	250.447
853.649	248.468
853.777	236.383
853.905	252.043
854.033	235.872
854.162	301.766
854.290	246.149
854.418	226.681
854.546	231.681
854.674	342.468
854.802	245.128
854.930	230.170
855.058	226.809
855.187	228.660
855.315	255.298
855.443	222.894
855.571	230.745
855.699	233.830
855.827	240.723
855.955	235.383
856.083	238.766
856.212	243.149
856.340	233.319
856.468	280.383
856.596	258.426
856.724	246.809
856.852	239.872
856.980	227.894
857.108	249.447
857.237	231.234
857.365	268.447
857.493	232.277
857.621	227.894
857.749	241.872
857.877	252.404
858.005	254.468
858.133	238.447
858.262	237.128
858.390	229.979
858.518	223.723
858.646	231.787
858.774	234.319
858.902	210.830
859.030	238.000
859.158	249.000
859.287	244.085
859.415	267.468
859.543	226.553
859.671	228.574
859.799	257.128
859.927	241.574
860.055	236.638
860.183	245.809
860.312	234.617
860.440	243.851
860.568	236.426
860.696	225.723
860.824	296.170
860.952	286.213
861.080	237.894
861.208	245.021
861.337	243.255
861.465	265.106
861.593	264.617
861.721	233.319
861.849	233.745
861.977	223.957
862.105	244.681
862.233	264.277
862.362	243.255
862.490	257.660
862.618	225.574
862.746	235.255
862.874	230.128
863.002	228.277
863.130	256.255
863.258	240.021
863.387	251.383
863.515	250.957
863.643	240.234
863.771	312.319
863.899	233.511
864.027	223.638
864.155	230.298
864.283	259.298
864.412	231.170
864.540	229.574
864.668	214.830
864.796	230.894
864.924	239.277
865.052	237.277
865.180	222.532
865.308	213.894
865.437	242.319
865.565	241.021
865.693	267.574
865.821	239.340
865.949	254.787
866.077	231.511
866.205	243.532
866.333	251.702
866.462	228.915
866.590	237.255
866.718	247.085
866.846	229.596
866.974	243.723
867.102	248.596
867.230	262.617
867.358	232.766
867.487	231.532
867.615	249.702
867.743	240.809
867.871	241.660
867.999	240.383
868.127	235.638
868.255	284.872
868.383	281.702
868.512	234.064
868.640	229.809
868.768	220.149
868.896	220.319
869.024	266.660
869.152	233.915
869.280	242.723
869.408	268.255
869.537	228.787
869.665	293.936
869.793	226.085
869.921	269.957
870.049	248.277
870.177	238.638
870.305	278.574
870.433	214.553
870.562	244.128
870.690	218.894
870.818	224.787
870.946	237.851
871.074	268.106
871.202	242.660
871.330	254.383
871.458	212.234
871.587	231.043
871.715	235.660
871.843	226.596
871.971	228.128
872.099	239.723
872.227	227.894
872.355	245.043
872.483	242.553
872.612	237.638
872.740	245.596
872.868	226.447
872.996	238.702
873.124	233.979
873.252	236.936
873.380	233.574
873.508	223.234
873.637	249.319
873.765	221.447
873.893	288.745
874.021	245.085
874.149	231.277
874.277	243.340
874.405	228.043
874.533	232.298
874.662	1130.511
874.790	234.638
874.918	275.404
875.046	254.872
875.174	245.660
875.302	224.128
875.430	271.277
875.558	247.128
875.687	242.468
875.815	230.936
875.943	230.511
876.071	244.745
876.199	255.362
876.327	278.830
876.455	234.957
876.583	252.915
876.712	236.617
876.840	245.000
876.968	283.787
877.096	231.468
877.224	218.234
877.352	283.511
877.480	225.809
877.608	238.681
877.737	247.809
877.865	236.191
877.993	251.681
878.121	213.638
878.249	222.830
878.377	231.596
878.505	239.468
878.633	241.064
878.762	232.468
878.890	225.894
879.018	294.362
879.146	239.234
879.274	224.957
879.402	257.915
879.530	240.362
879.658	223.298
879.787	235.085
879.915	226.383
880.043	261.745
880.171	215.872
880.299	251.489
880.427	238.213
880.555	232.383
880.683	257.191
880.812	227.681
880.940	259.894
881.068	218.851
881.196	234.617
881.324	245.000
881.452	225.383
881.580	251.362
881.708	254.404
881.837	243.362
881.965	244.617
882.093	247.957
882.221	224.489
882.349	270.553
882.477	257.830
882.605	243.766
882.733	228.085
882.862	270.872
882.990	251.617
883.118	234.766
883.246	238.298
883.374	235.660
883.502	230.340
883.630	224.447
883.758	238.596
883.887	242.660
884.015	227.723
884.143	225.574
884.271	246.340
884.399	225.340
884.527	235.170
884.655	219.383
884.783	245.553
884.912	251.766
885.040	223.574
885.168	299.511
885.296	230.872
885.424	246.638
885.552	248.872
885.680	243.532
885.808	226.489
885.937	242.064
886.065	249.681
886.193	225.106
886.321	268.574
886.449	224.894
886.577	270.553
886.705	228.660
886.833	222.489
886.962	225.915
887.090	237.872
887.218	238.191
887.346	252.574
887.474	266.830
887.602	247.957
887.730	247.277
887.858	260.511
887.987	236.851
888.115	269.319
888.243	239.574
888.371	243.872
888.499	232.255
888.627	251.766
888.755	245.191
888.883	233.745
889.012	230.872
889.140	231.447
889.268	260.447
889.396	250.085
889.524	239.340
889.652	221.213
889.780	221.894
889.908	257.191
890.037	227.021
890.165	230.064
890.293	253.872
890.421	291.936
890.549	240.979
890.677	245.511
890.805	225.936
890.933	267.213
891.062	236.383
891.190	226.702
891.318	242.319
891.446	231.362
891.574	224.191
891.702	229.957
891.830	232.404
891.958	265.936
892.087	274.532
892.215	244.638
892.343	245.872
892.471	247.255
892.599	230.979
892.727	257.979
892.855	230.702
892.983	223.681
893.112	240.085
893.240	231.000
893.368	266.106
893.496	233.383
893.624	243.787
893.752	293.191
893.880	273.660
894.008	220.681
894.137	242.894
894.265	241.489
894.393	244.447
894.521	229.872
894.649	259.532
894.777	237.638
894.905	220.383
895.033	265.979
895.162	231.426
895.290	270.021
895.418	253.809
895.546	248.043
895.674	313.213
895.802	227.489
895.930	249.149
896.058	218.362
896.187	232.723
896.315	228.638
896.443	231.447
896.571	235.191
896.699	238.043
896.827	244.574
896.955	240.468
897.083	227.191
897.212	266.298
897.340	229.553
897.468	217.191
897.596	231.638
897.724	273.170
897.852	239.404
897.980	236.511
898.108	243.000
898.237	230.617
898.365	223.298
898.493	241.489
898.621	237.362
898.749	234.170
898.877	245.596
899.005	218.468
899.133	236.596
899.262	254.957
899.390	258.447
899.518	235.489
899.646	237.660
899.774	260.681
899.902	313.319
900.030	259.383
900.158	236.872
900.287	250.468
900.415	219.681
900.543	242.809
900.671	236.426
900.799	265.511
900.927	233.511
901.055	227.191
901.183	244.489
901.312	259.043
901.440	251.064
901.568	250.617
901.696	239.894
901.824	249.447
901.952	250.234
902.080	349.638
902.208	268.745
902.337	229.617
902.465	248.255
902.593	240.043
902.721	243.830
902.849	247.447
902.977	249.681
903.105	240.021
903.233	257.979
903.362	238.766
903.490	244.872
903.618	236.298
903.746	256.723
903.874	236.064
904.002	248.149
904.130	244.936
904.258	258.064
904.387	231.426
904.515	252.830
904.643	220.596
904.771	238.723
904.899	254.447
905.027	260.957
905.155	249.298
905.283	247.255
905.412	268.638
905.540	235.298
905.668	235.340
905.796	230.340
905.924	238.745
906.052	241.894
906.180	262.000
906.308	249.723
906.437	274.553
906.565	237.596
906.693	242.851
906.821	225.957
906.949	238.766
907.077	253.851
907.205	242.085
907.333	248.021
907.462	240.957
907.590	234.064
907.718	258.809
907.846	279.489
907.974	233.766
908.102	246.000
908.230	269.128
908.358	278.021
908.487	247.468
908.615	246.468
908.743	251.021
908.871	299.340
908.999	240.660
909.127	271.234
909.255	229.447
909.383	238.915
909.512	272.489
909.640	248.809
909.768	248.000
909.896	286.340
910.024	268.468
910.152	249.915
910.280	288.851
910.408	242.468
910.537	238.213
910.665	278.723
910.793	251.702
910.921	257.447
911.049	244.043
911.177	239.660
911.305	259.277
911.433	255.362
911.562	251.340
911.690	251.957
911.818	302.277
911.946	242.319
912.074	265.383
912.202	285.596
912.330	246.234
912.458	250.787
912.587	266.681
912.715	277.553
912.843	272.447
912.971	262.617
913.099	283.936
913.227	270.404
913.355	252.426
913.483	267.617
913.612	264.574
913.740	395.170
913.868	258.064
