dark count_at_750.00nm_cut_at_984.50Y_01.dat
24.04.2023
12:22:44
cut middle at Y: 984.50
top cursor: 1008 down cursor: 961 mean of: 47 lines , 2560 datapoints
wavelength(nm)	intensity[arb. units]
585.996	286.277
586.124	276.043
586.252	270.298
586.380	258.766
586.508	252.957
586.637	259.596
586.765	259.979
586.893	256.660
587.021	252.277
587.149	267.213
587.277	262.957
587.405	270.894
587.533	255.660
587.662	274.447
587.790	276.511
587.918	266.872
588.046	252.511
588.174	260.000
588.302	283.468
588.430	284.170
588.558	248.596
588.687	243.809
588.815	321.872
588.943	267.681
589.071	258.596
589.199	285.106
589.327	261.532
589.455	247.170
589.583	260.936
589.712	283.553
589.840	255.085
589.968	246.532
590.096	249.532
590.224	237.766
590.352	262.660
590.480	252.723
590.608	243.213
590.737	243.511
590.865	259.085
590.993	252.681
591.121	273.915
591.249	267.660
591.377	253.255
591.505	258.362
591.633	243.170
591.762	238.170
591.890	253.191
592.018	243.702
592.146	254.511
592.274	263.128
592.402	250.702
592.530	244.234
592.658	303.468
592.787	256.426
592.915	266.085
593.043	233.723
593.171	242.745
593.299	259.043
593.427	243.660
593.555	266.383
593.683	250.830
593.812	255.191
593.940	248.553
594.068	246.277
594.196	263.872
594.324	238.830
594.452	233.574
594.580	263.043
594.708	247.234
594.837	244.468
594.965	236.085
595.093	232.447
595.221	242.553
595.349	251.936
595.477	285.298
595.605	245.149
595.733	249.383
595.862	249.064
595.990	221.255
596.118	259.638
596.246	218.532
596.374	275.617
596.502	279.064
596.630	241.170
596.758	245.660
596.887	247.936
597.015	261.340
597.143	236.064
597.271	268.894
597.399	289.149
597.527	237.894
597.655	230.489
597.783	241.553
597.912	226.979
598.040	252.447
598.168	243.128
598.296	262.000
598.424	240.383
598.552	247.447
598.680	240.426
598.808	242.702
598.937	261.383
599.065	237.128
599.193	240.043
599.321	252.234
599.449	249.617
599.577	226.213
599.705	243.234
599.833	231.681
599.962	246.574
600.090	232.830
600.218	246.660
600.346	247.872
600.474	232.723
600.602	234.596
600.730	237.255
600.858	280.234
600.987	248.000
601.115	225.936
601.243	228.277
601.371	244.085
601.499	231.362
601.627	249.106
601.755	259.191
601.883	255.426
602.012	244.426
602.140	240.851
602.268	256.021
602.396	257.766
602.524	258.660
602.652	255.213
602.780	251.106
602.908	254.617
603.037	240.149
603.165	226.809
603.293	236.085
603.421	224.681
603.549	235.340
603.677	294.745
603.805	233.809
603.933	239.660
604.062	239.234
604.190	247.617
604.318	232.574
604.446	254.787
604.574	237.660
604.702	250.660
604.830	233.532
604.958	235.447
605.087	244.362
605.215	235.638
605.343	260.213
605.471	220.106
605.599	300.021
605.727	238.596
605.855	275.809
605.983	231.170
606.112	257.468
606.240	237.191
606.368	246.277
606.496	265.340
606.624	244.617
606.752	257.638
606.880	241.596
607.008	236.766
607.137	220.957
607.265	225.894
607.393	237.128
607.521	249.617
607.649	281.894
607.777	237.957
607.905	228.553
608.033	226.106
608.162	294.043
608.290	231.723
608.418	236.362
608.546	243.574
608.674	239.681
608.802	241.596
608.930	227.553
609.058	247.128
609.187	290.085
609.315	232.617
609.443	236.191
609.571	272.915
609.699	287.511
609.827	258.298
609.955	240.149
610.083	248.915
610.212	234.723
610.340	223.468
610.468	222.872
610.596	251.085
610.724	218.553
610.852	264.511
610.980	221.915
611.108	240.191
611.237	231.660
611.365	257.383
611.493	224.936
611.621	255.979
611.749	242.021
611.877	236.702
612.005	237.234
612.133	248.766
612.262	227.106
612.390	221.404
612.518	260.723
612.646	233.170
612.774	257.894
612.902	225.787
613.030	226.191
613.158	263.979
613.287	240.340
613.415	242.553
613.543	219.681
613.671	223.000
613.799	290.681
613.927	226.574
614.055	232.809
614.183	226.191
614.312	235.830
614.440	225.511
614.568	230.723
614.696	290.447
614.824	234.532
614.952	222.957
615.080	233.170
615.208	222.404
615.337	236.191
615.465	224.894
615.593	244.638
615.721	245.532
615.849	236.532
615.977	241.362
616.105	210.000
616.233	233.766
616.362	224.426
616.490	258.830
616.618	243.213
616.746	222.362
616.874	234.553
617.002	223.553
617.130	230.362
617.258	247.064
617.387	224.255
617.515	229.404
617.643	233.596
617.771	212.702
617.899	241.128
618.027	239.894
618.155	231.702
618.283	233.489
618.412	241.021
618.540	217.191
618.668	218.383
618.796	244.213
618.924	241.936
619.052	220.894
619.180	227.787
619.308	238.170
619.437	235.723
619.565	236.447
619.693	241.787
619.821	225.681
619.949	223.957
620.077	231.106
620.205	246.936
620.333	253.617
620.462	227.894
620.590	275.234
620.718	252.085
620.846	237.468
620.974	241.191
621.102	228.957
621.230	229.340
621.358	303.085
621.487	234.489
621.615	228.702
621.743	239.532
621.871	228.787
621.999	231.915
622.127	227.894
622.255	216.404
622.383	223.532
622.512	220.000
622.640	249.298
622.768	228.809
622.896	217.489
623.024	232.213
623.152	241.787
623.280	239.553
623.408	232.106
623.537	241.915
623.665	228.681
623.793	217.723
623.921	237.319
624.049	225.936
624.177	222.532
624.305	210.277
624.433	223.915
624.562	236.936
624.690	229.404
624.818	237.702
624.946	219.191
625.074	228.298
625.202	242.830
625.330	231.830
625.458	230.170
625.587	221.915
625.715	221.511
625.843	226.574
625.971	249.319
626.099	309.149
626.227	231.213
626.355	212.681
626.483	221.745
626.612	232.766
626.740	234.979
626.868	249.596
626.996	249.255
627.124	221.894
627.252	217.064
627.380	227.532
627.508	240.128
627.637	227.447
627.765	220.511
627.893	253.617
628.021	270.766
628.149	445.979
628.277	523.064
628.405	438.234
628.533	276.702
628.662	231.000
628.790	220.191
628.918	242.043
629.046	234.617
629.174	330.872
629.302	423.957
629.430	360.915
629.558	239.170
629.687	239.106
629.815	250.638
629.943	234.872
630.071	233.574
630.199	218.191
630.327	232.511
630.455	244.936
630.583	272.617
630.712	227.979
630.840	250.830
630.968	276.681
631.096	213.319
631.224	229.894
631.352	276.340
631.480	239.234
631.608	282.298
631.737	306.000
631.865	224.723
631.993	223.553
632.121	267.766
632.249	220.596
632.377	230.043
632.505	235.766
632.633	223.043
632.762	226.894
632.890	225.447
633.018	227.170
633.146	269.043
633.274	222.830
633.402	237.255
633.530	235.468
633.658	246.596
633.787	215.574
633.915	230.064
634.043	226.830
634.171	275.340
634.299	223.979
634.427	211.532
634.555	239.298
634.683	230.213
634.812	236.362
634.940	233.723
635.068	221.404
635.196	226.362
635.324	241.362
635.452	251.426
635.580	243.638
635.708	218.064
635.837	218.021
635.965	249.000
636.093	211.681
636.221	236.660
636.349	243.362
636.477	238.426
636.605	219.383
636.733	217.149
636.862	280.277
636.990	227.149
637.118	225.085
637.246	223.915
637.374	206.298
637.502	237.149
637.630	227.681
637.758	229.702
637.887	217.851
638.015	234.660
638.143	251.021
638.271	229.149
638.399	216.574
638.527	217.617
638.655	222.404
638.783	240.979
638.912	217.574
639.040	235.255
639.168	232.489
639.296	239.340
639.424	272.830
639.552	229.809
639.680	396.596
639.808	243.766
639.937	228.851
640.065	221.234
640.193	220.170
640.321	228.957
640.449	238.809
640.577	241.915
640.705	215.404
640.833	242.872
640.962	215.447
641.090	238.979
641.218	213.617
641.346	218.851
641.474	212.319
641.602	252.128
641.730	225.277
641.858	245.809
641.987	225.830
642.115	224.553
642.243	223.489
642.371	218.617
642.499	226.319
642.627	242.213
642.755	236.596
642.883	217.468
643.012	242.149
643.140	234.000
643.268	240.043
643.396	235.000
643.524	223.213
643.652	226.447
643.780	238.021
643.908	321.511
644.037	219.745
644.165	218.468
644.293	227.000
644.421	239.106
644.549	237.043
644.677	255.234
644.805	238.489
644.933	213.915
645.062	232.979
645.190	215.191
645.318	220.468
645.446	213.681
645.574	240.681
645.702	224.468
645.830	263.872
645.958	202.766
646.087	240.064
646.215	214.404
646.343	224.319
646.471	229.809
646.599	241.043
646.727	209.106
646.855	216.766
646.983	231.809
647.112	231.362
647.240	225.106
647.368	229.000
647.496	225.681
647.624	240.979
647.752	216.298
647.880	240.085
648.008	239.213
648.137	218.064
648.265	233.766
648.393	254.277
648.521	241.213
648.649	231.809
648.777	220.383
648.905	231.830
649.033	216.574
649.162	217.149
649.290	280.553
649.418	211.213
649.546	235.404
649.674	238.404
649.802	216.447
649.930	225.149
650.058	277.085
650.187	229.404
650.315	206.915
650.443	258.489
650.571	232.255
650.699	241.404
650.827	230.872
650.955	221.340
651.083	236.085
651.212	246.255
651.340	218.128
651.468	211.213
651.596	209.426
651.724	230.532
651.852	230.553
651.980	242.106
652.108	241.489
652.237	219.979
652.365	230.596
652.493	238.234
652.621	228.128
652.749	234.255
652.877	213.468
653.005	225.532
653.133	222.468
653.262	238.830
653.390	235.787
653.518	245.234
653.646	236.511
653.774	245.191
653.902	229.426
654.030	242.830
654.158	211.766
654.287	224.851
654.415	228.915
654.543	245.851
654.671	233.894
654.799	210.021
654.927	237.766
655.055	213.894
655.183	216.979
655.312	225.447
655.440	270.149
655.568	232.617
655.696	224.170
655.824	309.596
655.952	277.298
656.080	241.957
656.208	238.851
656.337	253.170
656.465	236.638
656.593	232.766
656.721	213.851
656.849	210.021
656.977	244.277
657.105	231.191
657.233	231.617
657.362	219.191
657.490	225.383
657.618	224.319
657.746	223.362
657.874	209.234
658.002	227.936
658.130	229.851
658.258	234.064
658.387	232.298
658.515	213.553
658.643	218.979
658.771	229.149
658.899	273.447
659.027	236.766
659.155	260.596
659.283	224.532
659.412	233.362
659.540	228.170
659.668	239.064
659.796	215.830
659.924	247.489
660.052	249.660
660.180	230.809
660.308	231.957
660.437	227.809
660.565	237.085
660.693	215.213
660.821	239.128
660.949	227.043
661.077	213.957
661.205	223.383
661.333	224.340
661.462	231.064
661.590	247.979
661.718	233.511
661.846	216.298
661.974	246.319
662.102	213.723
662.230	229.532
662.358	218.830
662.487	237.021
662.615	228.043
662.743	228.085
662.871	227.426
662.999	227.617
663.127	211.617
663.255	243.511
663.383	239.128
663.512	239.000
663.640	241.574
663.768	228.915
663.896	288.255
664.024	226.872
664.152	228.681
664.280	234.191
664.408	236.851
664.537	234.957
664.665	277.170
664.793	224.447
664.921	209.362
665.049	224.043
665.177	233.404
665.305	221.043
665.433	222.723
665.562	240.532
665.690	226.319
665.818	234.915
665.946	243.553
666.074	224.596
666.202	241.574
666.330	215.234
666.458	227.255
666.587	237.085
666.715	247.830
666.843	248.894
666.971	222.319
667.099	225.979
667.227	235.617
667.355	222.894
667.483	215.638
667.612	245.319
667.740	218.489
667.868	238.191
667.996	254.447
668.124	226.191
668.252	222.319
668.380	227.894
668.508	234.617
668.637	218.468
668.765	218.830
668.893	228.128
669.021	201.957
669.149	202.660
669.277	236.255
669.405	216.809
669.533	253.638
669.662	244.915
669.790	248.277
669.918	223.128
670.046	223.149
670.174	213.468
670.302	220.830
670.430	219.511
670.558	223.787
670.687	216.149
670.815	234.447
670.943	231.979
671.071	225.766
671.199	230.681
671.327	253.043
671.455	234.170
671.583	215.128
671.712	242.936
671.840	248.149
671.968	218.085
672.096	213.234
672.224	223.936
672.352	228.723
672.480	211.936
672.608	226.021
672.737	230.128
672.865	214.511
672.993	219.489
673.121	218.574
673.249	216.000
673.377	226.255
673.505	206.596
673.633	208.894
673.762	226.213
673.890	207.340
674.018	266.340
674.146	224.553
674.274	244.617
674.402	222.511
674.530	260.979
674.658	225.383
674.787	230.021
674.915	220.149
675.043	277.213
675.171	215.426
675.299	232.000
675.427	238.809
675.555	219.340
675.683	238.638
675.812	223.532
675.940	259.170
676.068	233.787
676.196	228.809
676.324	232.191
676.452	234.447
676.580	233.574
676.708	230.021
676.837	220.574
676.965	221.702
677.093	226.915
677.221	244.447
677.349	223.915
677.477	223.021
677.605	249.936
677.733	233.787
677.862	216.468
677.990	230.021
678.118	219.277
678.246	217.596
678.374	234.128
678.502	207.894
678.630	242.340
678.758	245.532
678.887	218.596
679.015	240.851
679.143	224.213
679.271	229.106
679.399	258.872
679.527	209.809
679.655	211.553
679.783	214.532
679.912	296.447
680.040	234.149
680.168	227.426
680.296	225.468
680.424	218.766
680.552	221.553
680.680	220.574
680.808	204.043
680.937	216.872
681.065	224.362
681.193	209.723
681.321	258.128
681.449	224.830
681.577	266.489
681.705	226.596
681.833	201.894
681.962	222.872
682.090	232.213
682.218	221.830
682.346	220.702
682.474	220.362
682.602	228.936
682.730	241.511
682.858	218.511
682.987	238.426
683.115	234.383
683.243	222.319
683.371	232.298
683.499	255.000
683.627	251.128
683.755	219.021
683.883	247.872
684.012	221.723
684.140	214.553
684.268	213.574
684.396	231.468
684.524	252.085
684.652	240.255
684.780	211.660
684.908	229.362
685.037	217.021
685.165	233.787
685.293	216.787
685.421	219.681
685.549	207.340
685.677	230.404
685.805	224.660
685.933	225.638
686.062	210.574
686.190	229.149
686.318	230.064
686.446	234.319
686.574	238.766
686.702	241.766
686.830	235.468
686.958	202.064
687.087	227.085
687.215	219.468
687.343	227.787
687.471	218.638
687.599	216.043
687.727	234.979
687.855	221.915
687.983	253.298
688.112	244.021
688.240	243.830
688.368	239.532
688.496	229.128
688.624	220.255
688.752	212.936
688.880	241.596
689.008	209.383
689.137	233.596
689.265	201.915
689.393	210.787
689.521	218.809
689.649	218.277
689.777	238.489
689.905	208.362
690.033	219.447
690.162	216.766
690.290	224.128
690.418	215.234
690.546	322.936
690.674	223.511
690.802	209.191
690.930	235.489
691.058	208.043
691.187	209.532
691.315	221.021
691.443	227.638
691.571	230.468
691.699	202.213
691.827	217.043
691.955	234.128
692.083	235.979
692.212	210.404
692.340	241.957
692.468	237.553
692.596	219.277
692.724	221.128
692.852	222.000
692.980	251.043
693.108	228.553
693.237	220.447
693.365	232.979
693.493	213.809
693.621	204.532
693.749	209.617
693.877	205.511
694.005	223.106
694.133	209.957
694.262	214.660
694.390	206.213
694.518	216.936
694.646	232.298
694.774	214.894
694.902	213.064
695.030	214.702
695.158	210.936
695.287	224.255
695.415	233.809
695.543	209.340
695.671	252.426
695.799	255.809
695.927	234.638
696.055	210.596
696.183	222.766
696.312	236.383
696.440	212.043
696.568	225.553
696.696	222.064
696.824	227.447
696.952	221.851
697.080	246.915
697.208	221.468
697.337	213.957
697.465	223.617
697.593	213.000
697.721	229.064
697.849	223.085
697.977	219.447
698.105	239.234
698.233	229.340
698.362	228.723
698.490	232.723
698.618	248.957
698.746	215.787
698.874	237.085
699.002	276.574
699.130	226.426
699.258	218.149
699.387	209.787
699.515	221.255
699.643	222.936
699.771	237.106
699.899	236.085
700.027	226.021
700.155	208.000
700.283	246.745
700.412	240.553
700.540	202.277
700.668	206.000
700.796	236.660
700.924	224.553
701.052	207.894
701.180	221.149
701.308	215.851
701.437	223.574
701.565	217.021
701.693	244.809
701.821	251.085
701.949	261.787
702.077	247.170
702.205	219.404
702.333	240.340
702.462	220.936
702.590	207.000
702.718	225.511
702.846	226.298
702.974	242.511
703.102	241.340
703.230	226.021
703.358	217.383
703.487	218.574
703.615	228.128
703.743	223.723
703.871	227.426
703.999	214.553
704.127	265.915
704.255	223.638
704.383	212.340
704.512	216.702
704.640	223.745
704.768	210.936
704.896	227.660
705.024	214.872
705.152	239.894
705.280	238.957
705.408	227.128
705.537	221.277
705.665	228.149
705.793	225.085
705.921	204.277
706.049	219.702
706.177	208.809
706.305	221.255
706.433	214.787
706.562	212.383
706.690	208.362
706.818	213.745
706.946	221.191
707.074	212.149
707.202	210.787
707.330	223.766
707.458	240.043
707.587	217.021
707.715	227.830
707.843	216.149
707.971	228.191
708.099	226.319
708.227	227.702
708.355	213.149
708.483	219.638
708.612	207.936
708.740	215.809
708.868	227.660
708.996	242.702
709.124	281.532
709.252	217.957
709.380	210.915
709.508	207.702
709.637	209.979
709.765	223.745
709.893	248.277
710.021	256.064
710.149	212.809
710.277	252.638
710.405	216.000
710.533	226.468
710.662	212.979
710.790	232.021
710.918	222.298
711.046	228.957
711.174	212.830
711.302	211.128
711.430	217.745
711.558	207.404
711.687	209.617
711.815	200.043
711.943	221.000
712.071	215.277
712.199	231.149
712.327	234.553
712.455	211.809
712.583	229.766
712.712	220.894
712.840	212.660
712.968	221.383
713.096	221.617
713.224	205.191
713.352	227.936
713.480	197.319
713.608	227.809
713.737	191.936
713.865	212.660
713.993	224.660
714.121	213.787
714.249	247.553
714.377	219.043
714.505	237.468
714.633	225.723
714.762	221.830
714.890	221.000
715.018	256.234
715.146	250.809
715.274	213.809
715.402	214.404
715.530	209.809
715.658	228.617
715.787	215.021
715.915	209.638
716.043	205.894
716.171	221.766
716.299	216.383
716.427	226.404
716.555	262.340
716.683	214.574
716.812	214.000
716.940	237.553
717.068	215.872
717.196	213.787
717.324	254.149
717.452	224.255
717.580	214.851
717.708	234.660
717.837	247.894
717.965	221.298
718.093	211.830
718.221	209.574
718.349	232.596
718.477	209.085
718.605	223.064
718.733	225.936
718.862	234.149
718.990	211.638
719.118	245.851
719.246	219.830
719.374	238.340
719.502	243.489
719.630	302.191
719.758	213.000
719.887	203.787
720.015	234.170
720.143	215.489
720.271	206.638
720.399	261.936
720.527	252.298
720.655	211.809
720.783	220.489
720.912	212.426
721.040	253.809
721.168	209.404
721.296	249.064
721.424	215.085
721.552	215.787
721.680	212.638
721.808	234.319
721.937	232.234
722.065	229.000
722.193	204.702
722.321	229.128
722.449	238.872
722.577	236.936
722.705	218.894
722.833	223.106
722.962	249.532
723.090	207.404
723.218	230.787
723.346	234.106
723.474	226.021
723.602	277.766
723.730	250.915
723.858	264.872
723.987	243.319
724.115	210.979
724.243	230.979
724.371	218.511
724.499	259.383
724.627	220.085
724.755	242.809
724.883	242.915
725.012	229.043
725.140	227.574
725.268	221.723
725.396	218.298
725.524	215.085
725.652	242.957
725.780	229.830
725.908	223.362
726.037	217.064
726.165	217.681
726.293	198.553
726.421	228.191
726.549	227.894
726.677	217.383
726.805	223.000
726.933	230.213
727.062	213.255
727.190	238.404
727.318	219.872
727.446	224.702
727.574	216.660
727.702	243.043
727.830	219.511
727.958	266.596
728.087	251.255
728.215	248.426
728.343	223.489
728.471	235.532
728.599	233.553
728.727	240.234
728.855	232.574
728.983	252.574
729.112	224.128
729.240	226.383
729.368	236.702
729.496	244.596
729.624	241.404
729.752	252.085
729.880	247.106
730.008	237.979
730.137	249.617
730.265	259.660
730.393	238.319
730.521	235.277
730.649	253.936
730.777	264.106
730.905	233.723
731.033	256.574
731.162	304.660
731.290	367.809
731.418	294.574
731.546	355.298
731.674	238.277
731.802	248.383
731.930	229.596
732.058	226.574
732.187	252.085
732.315	216.106
732.443	241.170
732.571	238.064
732.699	235.511
732.827	271.404
732.955	222.872
733.083	229.851
733.212	231.723
733.340	230.681
733.468	232.830
733.596	227.277
733.724	207.404
733.852	234.702
733.980	246.723
734.108	241.681
734.237	266.702
734.365	246.255
734.493	265.979
734.621	236.340
734.749	251.362
734.877	238.021
735.005	241.511
735.133	223.149
735.262	236.170
735.390	235.106
735.518	242.383
735.646	236.255
735.774	233.447
735.902	255.766
736.030	223.872
736.158	302.213
736.287	222.170
736.415	253.681
736.543	217.255
736.671	215.064
736.799	244.468
736.927	304.511
737.055	236.936
737.183	235.745
737.312	241.979
737.440	280.723
737.568	298.043
737.696	232.383
737.824	282.213
737.952	220.298
738.080	219.766
738.208	284.511
738.337	250.277
738.465	315.255
738.593	232.404
738.721	222.404
738.849	235.915
738.977	252.936
739.105	239.213
739.233	261.085
739.362	241.149
739.490	217.809
739.618	224.489
739.746	246.745
739.874	241.872
740.002	212.787
740.130	240.298
740.258	244.170
740.387	222.660
740.515	224.149
740.643	225.043
740.771	272.787
740.899	233.128
741.027	237.106
741.155	267.532
741.283	220.809
741.412	230.617
741.540	233.106
741.668	217.787
741.796	226.106
741.924	284.511
742.052	235.936
742.180	241.298
742.308	232.851
742.437	234.255
742.565	281.064
742.693	255.085
742.821	234.000
742.949	284.596
743.077	252.213
743.205	241.043
743.333	253.106
743.462	259.489
743.590	270.426
743.718	240.745
743.846	257.809
743.974	245.723
744.102	250.277
744.230	262.809
744.358	238.489
744.487	232.957
744.615	258.319
744.743	243.787
744.871	226.894
744.999	284.213
745.127	232.851
745.255	229.170
745.383	255.149
745.512	235.957
745.640	231.149
745.768	248.766
745.896	244.745
746.024	245.340
746.152	226.553
746.280	228.319
746.408	234.277
746.537	240.277
746.665	244.426
746.793	250.766
746.921	218.128
747.049	235.149
747.177	271.426
747.305	283.298
747.433	294.170
747.562	228.064
747.690	234.191
747.818	254.340
747.946	235.766
748.074	338.447
748.202	275.872
748.330	242.085
748.458	262.766
748.587	241.723
748.715	235.681
748.843	252.362
748.971	236.660
749.099	243.085
749.227	273.936
749.355	233.787
749.483	225.787
749.612	243.085
749.740	232.979
749.868	231.809
749.996	242.553
750.124	235.021
750.252	254.298
750.380	249.149
750.508	233.234
750.637	228.766
750.765	267.170
750.893	242.128
751.021	259.128
751.149	254.277
751.277	264.404
751.405	284.617
751.533	309.489
751.662	229.979
751.790	264.000
751.918	240.553
752.046	249.085
752.174	240.702
752.302	295.915
752.430	241.915
752.558	235.660
752.687	237.404
752.815	245.277
752.943	227.617
753.071	225.255
753.199	239.511
753.327	293.170
753.455	251.128
753.583	224.957
753.712	246.979
753.840	232.000
753.968	241.681
754.096	238.170
754.224	231.277
754.352	234.447
754.480	223.404
754.608	238.915
754.737	241.894
754.865	266.234
754.993	243.319
755.121	228.064
755.249	301.234
755.377	249.553
755.505	230.830
755.633	268.745
755.762	239.255
755.890	316.660
756.018	303.064
756.146	232.915
756.274	240.596
756.402	239.234
756.530	245.936
756.658	255.021
756.787	264.936
756.915	224.319
757.043	261.511
757.171	259.979
757.299	251.532
757.427	234.596
757.555	247.255
757.683	295.149
757.812	225.340
757.940	244.596
758.068	226.447
758.196	226.085
758.324	227.213
758.452	331.191
758.580	238.234
758.708	250.000
758.837	232.574
758.965	335.702
759.093	242.979
759.221	225.809
759.349	241.809
759.477	230.915
759.605	234.787
759.733	238.702
759.862	237.532
759.990	240.468
760.118	246.851
760.246	234.362
760.374	251.936
760.502	251.617
760.630	254.000
760.758	240.362
760.887	227.766
761.015	240.213
761.143	227.489
761.271	237.830
761.399	229.979
761.527	233.043
761.655	239.851
761.783	229.660
761.912	229.851
762.040	229.021
762.168	262.617
762.296	239.043
762.424	226.277
762.552	241.766
762.680	290.149
762.808	225.511
762.937	241.319
763.065	275.553
763.193	279.085
763.321	258.574
763.449	220.596
763.577	243.830
763.705	243.021
763.833	304.426
763.962	242.362
764.090	230.021
764.218	254.106
764.346	248.660
764.474	228.894
764.602	245.574
764.730	236.362
764.858	252.255
764.987	250.404
765.115	291.191
765.243	248.170
765.371	237.426
765.499	225.021
765.627	235.128
765.755	228.872
765.883	247.574
766.012	233.809
766.140	223.511
766.268	233.681
766.396	217.340
766.524	231.830
766.652	220.213
766.780	218.787
766.908	247.787
767.037	240.000
767.165	243.191
767.293	286.128
767.421	232.277
767.549	232.830
767.677	244.149
767.805	231.766
767.933	234.213
768.062	241.404
768.190	229.702
768.318	214.511
768.446	239.681
768.574	274.574
768.702	241.872
768.830	227.489
768.958	226.681
769.087	214.809
769.215	222.000
769.343	221.936
769.471	212.106
769.599	259.085
769.727	245.319
769.855	224.021
769.983	226.638
770.112	219.872
770.240	223.404
770.368	217.489
770.496	205.383
770.624	217.979
770.752	233.553
770.880	258.404
771.008	220.957
771.137	211.298
771.265	259.851
771.393	228.426
771.521	222.851
771.649	212.128
771.777	224.638
771.905	214.043
772.033	227.957
772.162	239.830
772.290	215.532
772.418	279.745
772.546	235.617
772.674	218.021
772.802	232.872
772.930	260.468
773.058	215.383
773.187	233.426
773.315	222.702
773.443	224.723
773.571	220.383
773.699	221.064
773.827	206.426
773.955	254.085
774.083	237.021
774.212	224.213
774.340	243.681
774.468	221.915
774.596	214.468
774.724	221.468
774.852	225.149
774.980	225.191
775.108	213.362
775.237	221.489
775.365	231.021
775.493	223.404
775.621	221.128
775.749	225.213
775.877	221.489
776.005	225.447
776.133	243.872
776.262	236.149
776.390	206.404
776.518	260.021
776.646	217.702
776.774	231.085
776.902	223.809
777.030	224.213
777.158	228.915
777.287	240.915
777.415	207.787
777.543	212.043
777.671	204.064
777.799	210.511
777.927	214.064
778.055	229.617
778.183	212.638
778.312	194.511
778.440	216.830
778.568	223.085
778.696	218.617
778.824	225.745
778.952	223.277
779.080	204.085
779.208	237.319
779.337	234.617
779.465	226.511
779.593	222.532
779.721	231.936
779.849	223.362
779.977	217.553
780.105	209.553
780.233	227.149
780.362	249.234
780.490	258.745
780.618	221.915
780.746	220.085
780.874	206.149
781.002	216.298
781.130	213.872
781.258	203.213
781.387	218.872
781.515	239.277
781.643	217.553
781.771	257.702
781.899	217.064
782.027	257.426
782.155	222.915
782.283	216.766
782.412	204.000
782.540	220.468
782.668	242.170
782.796	198.234
782.924	247.149
783.052	211.787
783.180	242.021
783.308	215.255
783.437	211.298
783.565	226.404
783.693	221.872
783.821	217.660
783.949	208.128
784.077	231.489
784.205	220.191
784.333	264.979
784.462	198.745
784.590	217.021
784.718	233.745
784.846	207.447
784.974	232.872
785.102	261.085
785.230	214.638
785.358	270.426
785.487	221.106
785.615	226.723
785.743	213.234
785.871	224.617
785.999	210.213
786.127	198.979
786.255	225.745
786.383	248.085
786.512	237.745
786.640	230.298
786.768	235.447
786.896	211.298
787.024	214.489
787.152	220.426
787.280	210.915
787.408	204.255
787.537	234.957
787.665	225.426
787.793	247.489
787.921	228.170
788.049	224.170
788.177	208.106
788.305	208.298
788.433	237.000
788.562	208.383
788.690	208.809
788.818	217.979
788.946	225.362
789.074	202.000
789.202	231.085
789.330	231.319
789.458	219.234
789.587	270.000
789.715	224.489
789.843	220.979
789.971	215.681
790.099	207.830
790.227	225.532
790.355	211.298
790.483	242.787
790.612	224.511
790.740	222.617
790.868	237.277
790.996	227.362
791.124	219.234
791.252	224.128
791.380	228.830
791.508	226.660
791.637	221.979
791.765	208.213
791.893	218.362
792.021	219.468
792.149	214.766
792.277	226.213
792.405	203.447
792.533	229.106
792.662	200.894
792.790	211.979
792.918	229.170
793.046	207.766
793.174	242.596
793.302	227.681
793.430	221.957
793.558	211.830
793.687	218.170
793.815	220.617
793.943	237.872
794.071	238.872
794.199	222.872
794.327	235.468
794.455	293.340
794.583	314.170
794.712	218.426
794.840	220.957
794.968	225.383
795.096	249.191
795.224	205.170
795.352	211.468
795.480	256.553
795.608	226.702
795.737	224.979
795.865	221.638
795.993	216.936
796.121	207.000
796.249	226.809
796.377	242.128
796.505	221.170
796.633	202.894
796.762	213.936
796.890	221.043
797.018	238.532
797.146	215.851
797.274	204.468
797.402	215.617
797.530	234.957
797.658	212.000
797.787	261.191
797.915	220.872
798.043	238.979
798.171	212.170
798.299	231.617
798.427	215.638
798.555	224.787
798.683	205.468
798.812	222.383
798.940	282.851
799.068	217.000
799.196	254.404
799.324	219.234
799.452	227.149
799.580	212.447
799.708	275.447
799.837	206.340
799.965	218.128
800.093	237.660
800.221	204.255
800.349	218.957
800.477	219.745
800.605	229.702
800.733	232.723
800.862	220.894
800.990	255.340
801.118	214.553
801.246	214.128
801.374	234.426
801.502	216.617
801.630	207.000
801.758	220.170
801.887	241.745
802.015	211.511
802.143	207.617
802.271	233.511
802.399	217.170
802.527	212.681
802.655	248.617
802.783	266.532
802.912	222.809
803.040	215.255
803.168	208.660
803.296	199.574
803.424	222.574
803.552	217.511
803.680	216.957
803.808	222.362
803.937	220.362
804.065	210.894
804.193	220.340
804.321	269.766
804.449	202.085
804.577	215.511
804.705	217.468
804.833	240.915
804.962	209.766
805.090	215.894
805.218	232.298
805.346	226.298
805.474	225.787
805.602	236.660
805.730	216.511
805.858	202.404
805.987	229.745
806.115	223.745
806.243	223.745
806.371	248.894
806.499	321.064
806.627	356.872
806.755	320.660
806.883	229.468
807.012	216.213
807.140	235.979
807.268	233.149
807.396	232.617
807.524	209.149
807.652	218.447
807.780	277.681
807.908	210.298
808.037	260.894
808.165	247.553
808.293	220.447
808.421	262.936
808.549	211.681
808.677	216.872
808.805	252.766
808.933	221.170
809.062	236.532
809.190	273.723
809.318	223.638
809.446	208.851
809.574	270.213
809.702	204.277
809.830	225.000
809.958	230.638
810.087	225.511
810.215	237.787
810.343	226.277
810.471	230.362
810.599	211.277
810.727	218.489
810.855	201.468
810.983	204.574
811.112	221.277
811.240	212.809
811.368	226.298
811.496	253.383
811.624	232.681
811.752	206.234
811.880	223.234
812.008	204.957
812.137	235.383
812.265	200.830
812.393	236.745
812.521	240.766
812.649	222.596
812.777	217.340
812.905	247.894
813.033	205.128
813.162	212.574
813.290	215.404
813.418	221.851
813.546	214.809
813.674	209.979
813.802	226.340
813.930	200.404
814.058	203.957
814.187	224.979
814.315	215.000
814.443	224.426
814.571	230.106
814.699	239.000
814.827	211.085
814.955	213.915
815.083	242.638
815.212	248.872
815.340	248.617
815.468	213.809
815.596	215.447
815.724	229.383
815.852	206.957
815.980	216.340
816.108	215.021
816.237	205.766
816.365	224.106
816.493	231.234
816.621	203.894
816.749	220.064
816.877	231.128
817.005	242.553
817.133	227.596
817.262	212.064
817.390	216.340
817.518	210.277
817.646	223.660
817.774	213.213
817.902	213.830
818.030	211.702
818.158	251.447
818.287	230.340
818.415	208.702
818.543	215.532
818.671	237.553
818.799	214.319
818.927	232.383
819.055	222.277
819.183	213.511
819.312	215.809
819.440	209.319
819.568	214.213
819.696	222.064
819.824	231.000
819.952	208.362
820.080	224.660
820.208	214.894
820.337	204.234
820.465	248.149
820.593	215.043
820.721	218.064
820.849	226.489
820.977	216.979
821.105	231.021
821.233	199.383
821.362	237.957
821.490	204.809
821.618	215.681
821.746	206.298
821.874	223.149
822.002	216.277
822.130	212.830
822.258	199.553
822.387	210.149
822.515	231.298
822.643	230.766
822.771	227.043
822.899	219.830
823.027	260.106
823.155	207.511
823.283	203.021
823.412	227.511
823.540	212.830
823.668	261.872
823.796	209.128
823.924	244.511
824.052	246.426
824.180	230.532
824.308	211.617
824.437	218.085
824.565	220.255
824.693	233.085
824.821	226.894
824.949	229.638
825.077	225.787
825.205	250.766
825.333	235.660
825.462	243.957
825.590	215.872
825.718	241.809
825.846	215.234
825.974	207.894
826.102	212.638
826.230	216.936
826.358	210.128
826.487	215.702
826.615	255.362
826.743	208.489
826.871	243.447
826.999	269.170
827.127	226.957
827.255	230.213
827.383	210.383
827.512	238.723
827.640	206.596
827.768	205.255
827.896	224.383
828.024	215.319
828.152	219.383
828.280	221.043
828.408	211.979
828.537	220.255
828.665	224.787
828.793	221.660
828.921	205.787
829.049	233.617
829.177	209.021
829.305	207.532
829.433	224.894
829.562	232.340
829.690	207.681
829.818	247.872
829.946	215.170
830.074	221.766
830.202	236.255
830.330	246.574
830.458	260.979
830.587	211.319
830.715	220.319
830.843	221.574
830.971	227.298
831.099	244.851
831.227	210.085
831.355	216.319
831.483	226.936
831.612	250.277
831.740	213.957
831.868	223.766
831.996	213.851
832.124	214.149
832.252	200.426
832.380	226.957
832.508	271.170
832.637	213.447
832.765	219.021
832.893	248.170
833.021	209.660
833.149	207.255
833.277	222.149
833.405	213.830
833.533	206.468
833.662	217.191
833.790	210.298
833.918	224.043
834.046	258.681
834.174	228.532
834.302	212.766
834.430	202.426
834.558	221.447
834.687	235.298
834.815	206.553
834.943	221.319
835.071	222.085
835.199	215.170
835.327	238.511
835.455	214.064
835.583	251.085
835.712	206.085
835.840	212.362
835.968	215.362
836.096	263.660
836.224	229.021
836.352	204.638
836.480	222.043
836.608	224.638
836.737	207.128
836.865	207.872
836.993	219.766
837.121	217.128
837.249	218.447
837.377	234.340
837.505	223.872
837.633	218.979
837.762	216.723
837.890	251.255
838.018	249.766
838.146	255.298
838.274	221.511
838.402	244.511
838.530	210.340
838.658	206.447
838.787	224.936
838.915	215.340
839.043	203.596
839.171	239.660
839.299	202.660
839.427	214.000
839.555	219.000
839.683	232.957
839.812	248.660
839.940	207.574
840.068	225.489
840.196	226.936
840.324	210.170
840.452	216.319
840.580	252.596
840.708	226.021
840.837	252.766
840.965	210.957
841.093	225.596
841.221	215.894
841.349	223.915
841.477	229.723
841.605	224.787
841.733	217.489
841.862	218.085
841.990	271.809
842.118	201.255
842.246	211.723
842.374	218.319
842.502	199.915
842.630	232.255
842.758	237.532
842.887	214.809
843.015	217.702
843.143	242.830
843.271	214.830
843.399	256.277
843.527	227.702
843.655	204.255
843.783	213.468
843.912	208.723
844.040	244.574
844.168	209.362
844.296	203.574
844.424	204.149
844.552	234.723
844.680	232.787
844.808	244.638
844.937	218.298
845.065	219.404
845.193	233.128
845.321	221.489
845.449	219.149
845.577	220.191
845.705	211.404
845.833	210.404
845.962	230.298
846.090	212.489
846.218	215.128
846.346	223.723
846.474	231.574
846.602	222.213
846.730	253.170
846.858	235.043
846.987	220.894
847.115	206.191
847.243	234.872
847.371	235.489
847.499	237.830
847.627	219.957
847.755	210.298
847.883	223.064
848.012	227.511
848.140	221.298
848.268	235.660
848.396	208.596
848.524	238.979
848.652	194.426
848.780	219.234
848.908	221.170
849.037	205.830
849.165	228.170
849.293	227.511
849.421	239.319
849.549	223.149
849.677	231.213
849.805	217.574
849.933	224.511
850.062	215.234
850.190	210.638
850.318	227.383
850.446	209.596
850.574	207.064
850.702	224.149
850.830	221.213
850.958	229.128
851.087	204.638
851.215	223.979
851.343	210.383
851.471	216.106
851.599	228.213
851.727	215.957
851.855	268.574
851.983	227.447
852.112	223.085
852.240	211.340
852.368	221.319
852.496	210.468
852.624	214.043
852.752	219.000
852.880	203.340
853.008	224.723
853.137	229.319
853.265	238.191
853.393	224.298
853.521	232.723
853.649	232.000
853.777	211.043
853.905	236.191
854.033	215.532
854.162	273.149
854.290	216.298
854.418	205.915
854.546	213.319
854.674	315.809
854.802	220.191
854.930	208.149
855.058	196.234
855.187	207.979
855.315	239.106
855.443	196.468
855.571	208.234
855.699	212.660
855.827	220.298
855.955	211.489
856.083	215.149
856.212	224.043
856.340	213.426
856.468	263.043
856.596	233.894
856.724	225.234
856.852	220.681
856.980	215.340
857.108	228.298
857.237	208.404
857.365	237.787
857.493	210.574
857.621	207.277
857.749	219.596
857.877	232.787
858.005	238.532
858.133	219.426
858.262	223.468
858.390	210.660
858.518	204.766
858.646	205.574
858.774	206.830
858.902	194.553
859.030	216.000
859.158	221.340
859.287	224.043
859.415	246.553
859.543	205.447
859.671	204.426
859.799	236.851
859.927	224.447
860.055	214.979
860.183	223.511
860.312	223.723
860.440	221.404
860.568	217.468
860.696	202.043
860.824	274.851
860.952	263.383
861.080	224.468
861.208	219.532
861.337	221.638
861.465	249.872
861.593	246.340
861.721	213.957
861.849	215.638
861.977	205.277
862.105	219.638
862.233	244.170
862.362	227.638
862.490	237.404
862.618	203.511
862.746	214.915
862.874	213.298
863.002	206.128
863.130	246.574
863.258	226.936
863.387	228.936
863.515	235.404
863.643	220.277
863.771	284.936
863.899	217.255
864.027	204.468
864.155	209.383
864.283	240.809
864.412	216.511
864.540	210.426
864.668	208.957
864.796	219.638
864.924	218.723
865.052	219.255
865.180	208.787
865.308	188.532
865.437	229.723
865.565	227.021
865.693	246.043
865.821	224.532
865.949	238.149
866.077	219.787
866.205	228.957
866.333	233.213
866.462	204.766
866.590	219.404
866.718	231.681
866.846	206.319
866.974	229.362
867.102	230.128
867.230	250.298
867.358	220.213
867.487	213.404
867.615	236.511
867.743	214.872
867.871	226.362
867.999	219.064
868.127	214.340
868.255	266.191
868.383	268.809
868.512	212.170
868.640	213.915
868.768	200.426
868.896	199.617
869.024	248.936
869.152	217.638
869.280	222.234
869.408	246.149
869.537	211.979
869.665	280.511
869.793	210.617
869.921	249.915
870.049	224.511
870.177	224.681
870.305	257.085
870.433	199.128
870.562	232.681
870.690	203.298
870.818	214.191
870.946	225.383
871.074	254.021
871.202	220.915
871.330	236.745
871.458	200.617
871.587	217.468
871.715	227.979
871.843	211.574
871.971	209.000
872.099	216.617
872.227	205.064
872.355	239.021
872.483	221.979
872.612	223.617
872.740	227.511
872.868	209.404
872.996	214.596
873.124	215.319
873.252	218.468
873.380	211.191
873.508	205.128
873.637	232.043
873.765	210.043
873.893	267.000
874.021	218.702
874.149	211.809
874.277	223.298
874.405	210.043
874.533	214.149
874.662	1105.660
874.790	221.362
874.918	251.340
875.046	244.191
875.174	225.809
875.302	208.702
875.430	250.553
875.558	226.489
875.687	235.851
875.815	213.085
875.943	211.915
876.071	235.000
876.199	239.851
876.327	258.085
876.455	214.447
876.583	242.319
876.712	215.468
876.840	231.383
876.968	260.638
877.096	209.489
877.224	208.745
877.352	268.128
877.480	206.426
877.608	221.745
877.737	231.979
877.865	222.383
877.993	232.915
878.121	202.957
878.249	212.447
878.377	211.596
878.505	224.128
878.633	216.915
878.762	214.660
878.890	210.723
879.018	273.596
879.146	226.362
879.274	205.894
879.402	238.468
879.530	223.553
879.658	203.872
879.787	215.574
879.915	211.957
880.043	244.383
880.171	206.809
880.299	236.596
880.427	228.149
880.555	222.149
880.683	242.255
880.812	209.383
880.940	251.170
881.068	199.511
881.196	210.064
881.324	227.766
881.452	205.404
881.580	243.447
881.708	240.340
881.837	225.681
881.965	225.362
882.093	235.511
882.221	204.468
882.349	249.723
882.477	243.000
882.605	233.106
882.733	211.213
882.862	260.064
882.990	225.596
883.118	215.277
883.246	220.979
883.374	222.957
883.502	219.213
883.630	206.723
883.758	215.617
883.887	230.638
884.015	209.340
884.143	220.745
884.271	229.064
884.399	212.702
884.527	217.574
884.655	200.021
884.783	226.106
884.912	239.617
885.040	217.596
885.168	282.128
885.296	214.426
885.424	229.319
885.552	230.064
885.680	216.149
885.808	209.660
885.937	229.064
886.065	237.170
886.193	210.809
886.321	251.936
886.449	212.085
886.577	262.191
886.705	208.532
886.833	207.362
886.962	211.936
887.090	225.872
887.218	221.809
887.346	235.809
887.474	258.021
887.602	230.915
887.730	222.511
887.858	243.872
887.987	215.191
888.115	251.404
888.243	231.043
888.371	229.702
888.499	213.915
888.627	231.574
888.755	237.213
888.883	219.957
889.012	210.830
889.140	216.362
889.268	235.149
889.396	234.830
889.524	223.936
889.652	215.596
889.780	208.872
889.908	251.872
890.037	213.766
890.165	215.085
890.293	242.957
890.421	274.532
890.549	227.149
890.677	223.319
890.805	212.681
890.933	244.298
891.062	211.511
891.190	212.681
891.318	227.404
891.446	223.149
891.574	209.277
891.702	215.064
891.830	213.489
891.958	254.574
892.087	262.021
892.215	230.596
892.343	234.915
892.471	237.723
892.599	217.830
892.727	238.340
892.855	212.043
892.983	206.872
893.112	222.489
893.240	213.745
893.368	255.021
893.496	222.468
893.624	220.553
893.752	277.979
893.880	262.383
894.008	203.447
894.137	227.000
894.265	231.277
894.393	224.064
894.521	218.681
894.649	246.766
894.777	223.894
894.905	205.255
895.033	249.787
895.162	216.468
895.290	257.064
895.418	233.362
895.546	237.149
895.674	298.809
895.802	214.021
895.930	231.660
896.058	207.894
896.187	219.362
896.315	212.638
896.443	213.191
896.571	225.128
896.699	221.106
896.827	235.191
896.955	232.702
897.083	218.149
897.212	249.766
897.340	219.660
897.468	206.553
897.596	217.511
897.724	265.872
897.852	228.128
897.980	228.362
898.108	225.213
898.237	216.021
898.365	211.723
898.493	231.660
898.621	223.298
898.749	224.362
898.877	229.404
899.005	208.000
899.133	219.894
899.262	241.553
899.390	259.489
899.518	224.830
899.646	222.979
899.774	243.489
899.902	304.766
900.030	242.404
900.158	227.894
900.287	238.383
900.415	209.404
900.543	231.106
900.671	217.085
900.799	257.362
900.927	217.277
901.055	211.936
901.183	222.787
901.312	250.340
901.440	241.043
901.568	236.468
901.696	226.383
901.824	239.191
901.952	237.745
902.080	341.043
902.208	254.298
902.337	222.213
902.465	233.319
902.593	225.149
902.721	232.255
902.849	236.277
902.977	232.787
903.105	222.489
903.233	241.830
903.362	225.553
903.490	238.702
903.618	221.404
903.746	243.213
903.874	211.277
904.002	235.809
904.130	228.872
904.258	246.128
904.387	224.319
904.515	248.000
904.643	212.702
904.771	223.915
904.899	240.596
905.027	254.468
905.155	238.787
905.283	229.638
905.412	252.404
905.540	237.957
905.668	226.064
905.796	226.660
905.924	233.064
906.052	233.128
906.180	249.723
906.308	244.936
906.437	266.426
906.565	238.085
906.693	234.660
906.821	217.213
906.949	231.106
907.077	244.064
907.205	239.894
907.333	239.191
907.462	222.596
907.590	219.936
907.718	258.596
907.846	271.830
907.974	220.319
908.102	230.681
908.230	256.106
908.358	268.723
908.487	233.894
908.615	240.191
908.743	248.085
908.871	289.532
908.999	234.702
909.127	264.702
909.255	218.234
909.383	227.191
909.512	270.149
909.640	243.043
909.768	233.468
909.896	282.936
910.024	261.702
910.152	242.213
910.280	276.128
910.408	228.277
910.537	233.000
910.665	264.766
910.793	242.128
910.921	251.149
911.049	229.851
911.177	232.702
911.305	251.787
911.433	243.511
911.562	235.574
911.690	241.830
911.818	292.723
911.946	228.447
912.074	254.511
912.202	276.681
912.330	236.915
912.458	235.936
912.587	251.085
912.715	264.447
912.843	271.447
912.971	254.191
913.099	280.106
913.227	254.277
913.355	243.234
913.483	262.957
913.612	262.426
913.740	375.830
913.868	257.213
