Referenz_PS_at_750.00nm_cut_at_1008.00Y_01.dat
15.05.2023
12:36:24
cut middle at Y: 1008.00
top cursor: 1048 down cursor: 968 mean of: 80 lines , 2560 datapoints
wavelength(nm)	intensity[arb. units]
585.996	850.375
586.124	843.300
586.252	830.875
586.380	820.150
586.508	827.513
586.637	822.038
586.765	831.350
586.893	823.775
587.021	822.612
587.149	837.675
587.277	839.138
587.405	838.163
587.533	828.575
587.662	832.138
587.790	852.875
587.918	833.812
588.046	837.825
588.174	831.450
588.302	839.675
588.430	839.875
588.558	831.500
588.687	843.312
588.815	865.075
588.943	847.025
589.071	838.800
589.199	846.950
589.327	834.987
589.455	818.263
589.583	839.562
589.712	845.750
589.840	840.300
589.968	830.538
590.096	833.075
590.224	832.700
590.352	839.513
590.480	839.837
590.608	845.587
590.737	821.087
590.865	841.750
590.993	831.200
591.121	829.350
591.249	836.375
591.377	838.900
591.505	829.087
591.633	829.825
591.762	840.312
591.890	825.487
592.018	832.163
592.146	837.650
592.274	839.450
592.402	817.362
592.530	823.888
592.658	831.800
592.787	834.750
592.915	835.562
593.043	827.562
593.171	832.562
593.299	833.700
593.427	828.337
593.555	838.212
593.683	833.400
593.812	832.175
593.940	841.650
594.068	826.138
594.196	860.375
594.324	834.362
594.452	837.263
594.580	846.763
594.708	839.837
594.837	835.100
594.965	833.350
595.093	839.700
595.221	847.625
595.349	850.788
595.477	843.038
595.605	844.975
595.733	863.925
595.862	838.600
595.990	840.437
596.118	847.825
596.246	858.075
596.374	867.100
596.502	867.913
596.630	859.250
596.758	859.975
596.887	864.812
597.015	867.050
597.143	849.650
597.271	863.663
597.399	863.263
597.527	857.725
597.655	851.825
597.783	859.337
597.912	848.237
598.040	873.450
598.168	855.812
598.296	847.125
598.424	848.312
598.552	852.925
598.680	848.725
598.808	838.237
598.937	852.000
599.065	851.362
599.193	851.987
599.321	838.625
599.449	850.975
599.577	846.237
599.705	841.000
599.833	837.362
599.962	839.450
600.090	835.275
600.218	845.175
600.346	849.075
600.474	842.275
600.602	838.388
600.730	841.650
600.858	848.100
600.987	839.825
601.115	847.300
601.243	836.312
601.371	837.612
601.499	839.300
601.627	845.375
601.755	848.400
601.883	840.475
602.012	838.237
602.140	836.675
602.268	842.625
602.396	856.913
602.524	851.187
602.652	854.450
602.780	845.987
602.908	851.200
603.037	852.950
603.165	848.800
603.293	865.425
603.421	871.400
603.549	852.962
603.677	884.362
603.805	849.600
603.933	863.925
604.062	869.288
604.190	874.600
604.318	856.325
604.446	884.038
604.574	876.400
604.702	874.687
604.830	866.475
604.958	870.562
605.087	889.437
605.215	879.125
605.343	905.325
605.471	884.462
605.599	898.300
605.727	894.437
605.855	912.800
605.983	896.013
606.112	904.837
606.240	899.062
606.368	908.487
606.496	903.200
606.624	889.712
606.752	900.700
606.880	907.850
607.008	921.425
607.137	916.775
607.265	916.913
607.393	920.500
607.521	910.538
607.649	918.750
607.777	906.812
607.905	904.462
608.033	914.450
608.162	922.425
608.290	903.975
608.418	920.650
608.546	922.275
608.674	925.675
608.802	906.100
608.930	917.187
609.058	912.263
609.187	912.413
609.315	905.987
609.443	913.175
609.571	913.100
609.699	921.850
609.827	911.263
609.955	895.062
610.083	911.487
610.212	898.675
610.340	903.750
610.468	907.475
610.596	915.538
610.724	897.975
610.852	912.575
610.980	910.513
611.108	903.862
611.237	910.413
611.365	911.275
611.493	903.175
611.621	912.087
611.749	913.325
611.877	917.913
612.005	897.337
612.133	905.325
612.262	896.487
612.390	910.638
612.518	914.850
612.646	910.362
612.774	917.062
612.902	910.575
613.030	903.587
613.158	910.675
613.287	941.350
613.415	906.587
613.543	908.913
613.671	909.437
613.799	928.937
613.927	920.312
614.055	914.850
614.183	915.800
614.312	912.875
614.440	919.437
614.568	911.850
614.696	929.750
614.824	921.237
614.952	928.150
615.080	931.888
615.208	934.513
615.337	936.987
615.465	927.013
615.593	947.337
615.721	931.000
615.849	939.112
615.977	948.950
616.105	944.800
616.233	937.850
616.362	943.475
616.490	932.337
616.618	948.638
616.746	931.288
616.874	947.737
617.002	939.437
617.130	948.675
617.258	945.400
617.387	956.312
617.515	950.687
617.643	951.950
617.771	960.237
617.899	954.050
618.027	946.675
618.155	955.612
618.283	951.038
618.412	965.913
618.540	952.312
618.668	956.650
618.796	948.337
618.924	960.788
619.052	949.212
619.180	960.288
619.308	967.187
619.437	963.300
619.565	965.638
619.693	951.600
619.821	959.038
619.949	954.475
620.077	958.725
620.205	962.100
620.333	959.288
620.462	954.450
620.590	965.625
620.718	972.725
620.846	956.663
620.974	988.025
621.102	957.400
621.230	952.825
621.358	986.837
621.487	965.638
621.615	964.212
621.743	973.075
621.871	958.612
621.999	956.875
622.127	964.425
622.255	955.763
622.383	960.337
622.512	945.350
622.640	959.225
622.768	955.800
622.896	951.275
623.024	941.638
623.152	960.413
623.280	955.112
623.408	955.100
623.537	948.300
623.665	942.875
623.793	952.888
623.921	942.300
624.049	943.212
624.177	944.325
624.305	941.500
624.433	952.962
624.562	948.837
624.690	941.538
624.818	949.388
624.946	954.763
625.074	947.263
625.202	949.987
625.330	952.100
625.458	937.437
625.587	942.950
625.715	941.150
625.843	935.925
625.971	945.812
626.099	959.288
626.227	938.750
626.355	933.562
626.483	943.425
626.612	934.788
626.740	938.150
626.868	953.538
626.996	936.913
627.124	924.425
627.252	928.450
627.380	950.300
627.508	935.625
627.637	936.650
627.765	932.788
627.893	949.263
628.021	944.825
628.149	961.500
628.277	971.375
628.405	966.962
628.533	954.687
628.662	933.987
628.790	951.950
628.918	934.775
629.046	933.187
629.174	931.237
629.302	943.013
629.430	947.950
629.558	945.500
629.687	950.100
629.815	946.575
629.943	947.013
630.071	943.212
630.199	945.375
630.327	955.925
630.455	938.013
630.583	959.937
630.712	958.500
630.840	952.638
630.968	964.425
631.096	960.925
631.224	954.100
631.352	965.525
631.480	961.163
631.608	953.250
631.737	949.150
631.865	966.950
631.993	957.825
632.121	962.013
632.249	971.087
632.377	969.312
632.505	969.275
632.633	949.350
632.762	959.675
632.890	966.913
633.018	968.862
633.146	971.975
633.274	968.212
633.402	956.975
633.530	968.987
633.658	976.650
633.787	954.337
633.915	964.725
634.043	962.112
634.171	969.187
634.299	957.388
634.427	961.687
634.555	954.562
634.683	972.725
634.812	953.687
634.940	963.325
635.068	946.500
635.196	959.413
635.324	962.612
635.452	966.862
635.580	952.413
635.708	949.337
635.837	961.837
635.965	955.300
636.093	962.300
636.221	959.825
636.349	956.737
636.477	952.962
636.605	953.150
636.733	946.675
636.862	948.000
636.990	932.388
637.118	947.437
637.246	950.425
637.374	937.050
637.502	928.750
637.630	945.212
637.758	952.913
637.887	956.837
638.015	943.625
638.143	945.038
638.271	924.187
638.399	930.375
638.527	933.075
638.655	933.487
638.783	943.062
638.912	929.263
639.040	927.475
639.168	932.937
639.296	921.462
639.424	938.712
639.552	933.475
639.680	954.163
639.808	926.862
639.937	911.300
640.065	926.500
640.193	922.550
640.321	910.925
640.449	928.013
640.577	921.725
640.705	915.138
640.833	916.725
640.962	921.337
641.090	912.350
641.218	916.687
641.346	902.425
641.474	908.850
641.602	892.325
641.730	907.175
641.858	921.513
641.987	907.087
642.115	907.100
642.243	910.650
642.371	927.200
642.499	903.025
642.627	913.038
642.755	907.312
642.883	910.487
643.012	907.750
643.140	904.900
643.268	903.950
643.396	912.525
643.524	904.362
643.652	914.775
643.780	911.013
643.908	909.275
644.037	902.350
644.165	908.687
644.293	904.200
644.421	898.687
644.549	914.263
644.677	914.025
644.805	897.400
644.933	898.700
645.062	902.388
645.190	881.950
645.318	884.362
645.446	912.487
645.574	907.450
645.702	897.125
645.830	905.175
645.958	901.950
646.087	896.987
646.215	900.400
646.343	897.450
646.471	906.062
646.599	893.888
646.727	891.812
646.855	889.050
646.983	897.900
647.112	899.025
647.240	906.900
647.368	877.288
647.496	898.675
647.624	899.038
647.752	893.500
647.880	898.937
648.008	887.212
648.137	885.225
648.265	886.587
648.393	889.925
648.521	889.288
648.649	884.413
648.777	882.937
648.905	897.150
649.033	862.300
649.162	872.163
649.290	879.200
649.418	869.388
649.546	871.125
649.674	869.987
649.802	877.388
649.930	872.200
650.058	868.150
650.187	876.663
650.315	869.325
650.443	863.638
650.571	868.487
650.699	871.462
650.827	874.687
650.955	857.325
651.083	856.337
651.212	850.350
651.340	853.125
651.468	857.987
651.596	843.312
651.724	858.337
651.852	852.500
651.980	833.437
652.108	845.687
652.237	837.000
652.365	843.538
652.493	849.650
652.621	833.525
652.749	840.625
652.877	834.425
653.005	838.837
653.133	845.837
653.262	833.487
653.390	835.587
653.518	830.487
653.646	831.150
653.774	835.837
653.902	838.300
654.030	826.725
654.158	817.987
654.287	835.087
654.415	813.538
654.543	825.150
654.671	818.550
654.799	815.950
654.927	829.962
655.055	818.750
655.183	803.513
655.312	814.675
655.440	819.187
655.568	805.288
655.696	812.700
655.824	816.450
655.952	804.450
656.080	798.587
656.208	811.687
656.337	800.913
656.465	802.888
656.593	811.125
656.721	808.437
656.849	813.388
656.977	799.650
657.105	790.375
657.233	799.125
657.362	790.038
657.490	796.913
657.618	779.888
657.746	795.112
657.874	780.413
658.002	777.587
658.130	786.350
658.258	779.575
658.387	781.775
658.515	768.325
658.643	775.450
658.771	783.737
658.899	780.888
659.027	778.212
659.155	781.663
659.283	771.800
659.412	771.038
659.540	779.550
659.668	779.712
659.796	770.538
659.924	777.837
660.052	773.937
660.180	765.763
660.308	775.587
660.437	756.900
660.565	766.163
660.693	757.800
660.821	763.100
660.949	765.763
661.077	762.312
661.205	755.300
661.333	753.650
661.462	761.487
661.590	774.038
661.718	755.675
661.846	748.000
661.974	758.013
662.102	750.288
662.230	744.575
662.358	741.900
662.487	755.837
662.615	737.737
662.743	748.875
662.871	741.837
662.999	742.075
663.127	736.987
663.255	748.350
663.383	744.288
663.512	733.475
663.640	741.150
663.768	729.763
663.896	744.913
664.024	729.038
664.152	737.175
664.280	729.750
664.408	723.437
664.537	732.737
664.665	727.250
664.793	721.612
664.921	718.437
665.049	721.612
665.177	733.513
665.305	720.413
665.433	713.050
665.562	720.138
665.690	728.375
665.818	724.075
665.946	717.362
666.074	708.038
666.202	721.913
666.330	719.612
666.458	710.825
666.587	717.700
666.715	719.288
666.843	712.737
666.971	714.925
667.099	710.525
667.227	716.013
667.355	707.562
667.483	699.288
667.612	711.450
667.740	701.513
667.868	717.425
667.996	707.138
668.124	694.312
668.252	698.087
668.380	697.112
668.508	706.350
668.637	692.750
668.765	697.725
668.893	688.825
669.021	691.737
669.149	686.400
669.277	689.837
669.405	682.413
669.533	698.325
669.662	692.125
669.790	693.263
669.918	693.275
670.046	681.087
670.174	685.962
670.302	689.875
670.430	678.625
670.558	669.800
670.687	670.062
670.815	676.663
670.943	684.163
671.071	678.875
671.199	680.300
671.327	680.663
671.455	674.538
671.583	672.212
671.712	666.900
671.840	671.413
671.968	662.950
672.096	663.312
672.224	667.175
672.352	657.062
672.480	661.212
672.608	653.888
672.737	659.487
672.865	646.525
672.993	655.275
673.121	660.800
673.249	653.250
673.377	647.725
673.505	650.475
673.633	643.725
673.762	643.638
673.890	648.663
674.018	646.437
674.146	640.975
674.274	639.525
674.402	637.013
674.530	645.000
674.658	637.763
674.787	634.937
674.915	627.687
675.043	633.425
675.171	624.950
675.299	628.937
675.427	623.112
675.555	623.300
675.683	630.850
675.812	622.425
675.940	625.275
676.068	633.050
676.196	625.487
676.324	616.513
676.452	609.937
676.580	614.750
676.708	610.150
676.837	611.925
676.965	602.675
677.093	609.400
677.221	601.937
677.349	595.725
677.477	597.925
677.605	597.212
677.733	608.700
677.862	597.937
677.990	590.312
678.118	596.625
678.246	589.612
678.374	584.000
678.502	592.250
678.630	584.000
678.758	584.900
678.887	580.400
679.015	591.288
679.143	581.150
679.271	580.725
679.399	584.038
679.527	576.812
679.655	574.562
679.783	579.750
679.912	582.250
680.040	574.675
680.168	571.987
680.296	571.025
680.424	574.025
680.552	568.525
680.680	574.513
680.808	560.350
680.937	562.250
681.065	570.362
681.193	560.400
681.321	564.163
681.449	552.038
681.577	563.362
681.705	550.462
681.833	548.237
681.962	552.937
682.090	551.300
682.218	553.913
682.346	543.212
682.474	551.550
682.602	547.937
682.730	554.937
682.858	553.175
682.987	545.462
683.115	535.100
683.243	542.975
683.371	542.200
683.499	535.362
683.627	548.150
683.755	539.800
683.883	537.888
684.012	531.788
684.140	535.750
684.268	536.687
684.396	529.187
684.524	533.087
684.652	527.275
684.780	536.388
684.908	533.300
685.037	528.750
685.165	530.812
685.293	529.375
685.421	521.175
685.549	525.025
685.677	525.925
685.805	517.875
685.933	520.650
686.062	520.975
686.190	526.937
686.318	515.275
686.446	528.150
686.574	520.800
686.702	522.700
686.830	530.950
686.958	516.550
687.087	513.788
687.215	509.000
687.343	520.212
687.471	508.475
687.599	513.350
687.727	513.362
687.855	512.737
687.983	512.663
688.112	514.925
688.240	505.538
688.368	512.550
688.496	510.712
688.624	513.212
688.752	508.675
688.880	513.775
689.008	501.837
689.137	507.450
689.265	508.125
689.393	501.725
689.521	508.262
689.649	507.087
689.777	505.337
689.905	500.462
690.033	514.525
690.162	505.050
690.290	498.812
690.418	500.413
690.546	518.837
690.674	504.788
690.802	493.762
690.930	492.975
691.058	495.738
691.187	480.000
691.315	495.363
691.443	491.650
691.571	488.300
691.699	478.238
691.827	485.562
691.955	497.163
692.083	490.837
692.212	485.738
692.340	495.812
692.468	488.675
692.596	485.137
692.724	484.988
692.852	484.387
692.980	494.600
693.108	479.225
693.237	483.687
693.365	475.937
693.493	468.988
693.621	470.062
693.749	474.137
693.877	468.113
694.005	468.225
694.133	476.087
694.262	469.163
694.390	471.837
694.518	452.600
694.646	457.712
694.774	466.462
694.902	467.863
695.030	466.837
695.158	463.500
695.287	458.887
695.415	453.775
695.543	464.212
695.671	457.725
695.799	448.650
695.927	450.437
696.055	454.262
696.183	460.837
696.312	458.750
696.440	447.038
696.568	443.125
696.696	451.225
696.824	440.700
696.952	442.325
697.080	444.913
697.208	450.587
697.337	437.025
697.465	435.825
697.593	441.300
697.721	437.488
697.849	435.250
697.977	432.175
698.105	437.087
698.233	432.863
698.362	431.050
698.490	431.050
698.618	428.850
698.746	427.663
698.874	430.238
699.002	432.163
699.130	422.062
699.258	423.687
699.387	419.175
699.515	418.500
699.643	420.337
699.771	424.100
699.899	422.038
700.027	412.675
700.155	414.900
700.283	419.275
700.412	416.012
700.540	410.200
700.668	408.700
700.796	412.212
700.924	406.462
701.052	407.738
701.180	409.625
701.308	404.187
701.437	401.712
701.565	402.925
701.693	399.100
701.821	411.175
701.949	419.575
702.077	397.937
702.205	402.200
702.333	397.425
702.462	396.625
702.590	391.312
702.718	393.825
702.846	387.900
702.974	400.875
703.102	390.512
703.230	391.825
703.358	387.137
703.487	383.788
703.615	393.550
703.743	382.012
703.871	396.512
703.999	380.038
704.127	385.512
704.255	375.613
704.383	387.587
704.512	379.550
704.640	379.788
704.768	375.750
704.896	372.525
705.024	374.663
705.152	376.525
705.280	373.775
705.408	378.050
705.537	373.150
705.665	372.562
705.793	368.525
705.921	366.050
706.049	377.250
706.177	363.538
706.305	364.800
706.433	363.525
706.562	368.413
706.690	361.587
706.818	358.300
706.946	360.350
707.074	355.238
707.202	359.863
707.330	357.363
707.458	360.250
707.587	354.775
707.715	356.225
707.843	351.462
707.971	361.150
708.099	350.387
708.227	347.450
708.355	347.050
708.483	347.875
708.612	346.387
708.740	346.200
708.868	341.400
708.996	350.962
709.124	357.050
709.252	343.812
709.380	354.000
709.508	339.038
709.637	343.337
709.765	335.775
709.893	337.363
710.021	342.937
710.149	333.825
710.277	342.788
710.405	334.875
710.533	326.663
710.662	335.288
710.790	335.163
710.918	332.725
711.046	327.675
711.174	328.937
711.302	332.475
711.430	329.062
711.558	329.325
711.687	322.050
711.815	326.387
711.943	329.012
712.071	323.650
712.199	330.950
712.327	327.325
712.455	319.663
712.583	320.150
712.712	334.775
712.840	319.400
712.968	318.700
713.096	322.750
713.224	322.600
713.352	316.163
713.480	312.113
713.608	308.275
713.737	312.925
713.865	315.350
713.993	310.663
714.121	308.712
714.249	313.238
714.377	307.900
714.505	315.550
714.633	307.750
714.762	306.187
714.890	318.975
715.018	313.437
715.146	303.100
715.274	313.437
715.402	305.275
715.530	306.850
715.658	306.788
715.787	305.400
715.915	298.175
716.043	298.350
716.171	301.600
716.299	316.887
716.427	297.500
716.555	307.225
716.683	306.187
716.812	306.613
716.940	305.225
717.068	299.875
717.196	302.387
717.324	301.887
717.452	294.375
717.580	289.988
717.708	293.387
717.837	304.175
717.965	295.600
718.093	285.150
718.221	290.863
718.349	292.475
718.477	292.413
718.605	289.875
718.733	295.175
718.862	283.262
718.990	288.087
719.118	288.512
719.246	282.650
719.374	288.937
719.502	289.988
719.630	299.725
719.758	281.288
719.887	285.887
720.015	288.900
720.143	283.038
720.271	286.687
720.399	282.475
720.527	292.262
720.655	279.725
720.783	279.512
720.912	289.163
721.040	286.988
721.168	279.913
721.296	280.762
721.424	282.575
721.552	274.012
721.680	275.512
721.808	284.275
721.937	278.587
722.065	273.437
722.193	268.825
722.321	273.625
722.449	270.825
722.577	274.837
722.705	270.700
722.833	268.913
722.962	274.113
723.090	262.075
723.218	267.962
723.346	267.275
723.474	270.700
723.602	270.225
723.730	264.913
723.858	276.475
723.987	269.600
724.115	263.562
724.243	266.850
724.371	264.600
724.499	270.837
724.627	264.125
724.755	266.850
724.883	264.812
725.012	265.375
725.140	257.113
725.268	263.725
725.396	261.712
725.524	259.625
725.652	262.875
725.780	251.312
725.908	259.812
726.037	255.650
726.165	257.675
726.293	249.187
726.421	258.750
726.549	264.625
726.677	251.375
726.805	254.687
726.933	260.250
727.062	248.762
727.190	256.825
727.318	246.125
727.446	249.200
727.574	255.062
727.702	249.375
727.830	251.238
727.958	257.700
728.087	251.100
728.215	246.600
728.343	243.687
728.471	251.187
728.599	241.687
728.727	250.213
728.855	246.350
728.983	247.488
729.112	241.988
729.240	246.925
729.368	244.975
729.496	250.350
729.624	244.250
729.752	245.725
729.880	247.012
730.008	241.250
730.137	239.488
730.265	242.825
730.393	242.525
730.521	238.613
730.649	244.363
730.777	237.863
730.905	239.287
731.033	238.550
731.162	240.400
731.290	244.275
731.418	233.350
731.546	259.075
731.674	232.262
731.802	237.900
731.930	233.787
732.058	234.125
732.187	231.475
732.315	234.350
732.443	239.963
732.571	232.950
732.699	229.387
732.827	231.275
732.955	232.150
733.083	231.100
733.212	225.437
733.340	232.000
733.468	227.187
733.596	223.275
733.724	223.475
733.852	226.725
733.980	222.450
734.108	226.100
734.237	229.613
734.365	222.425
734.493	229.450
734.621	225.325
734.749	224.050
734.877	222.912
735.005	219.363
735.133	219.238
735.262	212.400
735.390	221.125
735.518	215.400
735.646	223.150
735.774	218.213
735.902	220.412
736.030	215.825
736.158	226.787
736.287	216.863
736.415	216.562
736.543	218.600
736.671	216.137
736.799	216.512
736.927	222.500
737.055	214.387
737.183	211.625
737.312	217.213
737.440	223.937
737.568	227.037
737.696	217.137
737.824	215.762
737.952	224.838
738.080	216.875
738.208	220.275
738.337	213.200
738.465	216.687
738.593	208.262
738.721	204.838
738.849	212.125
738.977	213.687
739.105	206.537
739.233	207.600
739.362	201.012
739.490	202.825
739.618	208.775
739.746	202.988
739.874	213.700
740.002	204.675
740.130	197.900
740.258	205.762
740.387	207.000
740.515	198.238
740.643	208.412
740.771	212.200
740.899	203.800
741.027	197.387
741.155	207.150
741.283	194.200
741.412	197.512
741.540	198.050
741.668	195.687
741.796	202.650
741.924	208.000
742.052	206.762
742.180	197.150
742.308	196.750
742.437	197.100
742.565	206.412
742.693	204.325
742.821	200.512
742.949	197.575
743.077	199.187
743.205	195.812
743.333	200.650
743.462	200.225
743.590	199.437
743.718	188.425
743.846	192.425
743.974	195.463
744.102	193.213
744.230	190.900
744.358	188.700
744.487	202.850
744.615	190.350
744.743	193.550
744.871	187.363
744.999	195.187
745.127	188.738
745.255	185.900
745.383	190.575
745.512	194.900
745.640	187.400
745.768	191.062
745.896	184.300
746.024	189.450
746.152	181.887
746.280	187.863
746.408	194.937
746.537	189.762
746.665	191.488
746.793	192.775
746.921	189.037
747.049	186.875
747.177	190.775
747.305	184.250
747.433	188.012
747.562	182.312
747.690	182.512
747.818	183.963
747.946	182.387
748.074	201.937
748.202	183.838
748.330	179.875
748.458	189.275
748.587	185.113
748.715	178.375
748.843	184.625
748.971	181.850
749.099	180.162
749.227	183.238
749.355	175.475
749.483	183.725
749.612	180.037
749.740	175.363
749.868	180.738
749.996	178.100
750.124	181.012
750.252	180.650
750.380	177.738
750.508	178.387
750.637	175.025
750.765	178.900
750.893	173.713
751.021	179.425
751.149	176.975
751.277	183.800
751.405	183.062
751.533	185.687
751.662	180.963
751.790	188.650
751.918	188.150
752.046	175.512
752.174	169.875
752.302	184.713
752.430	183.338
752.558	175.037
752.687	177.988
752.815	184.937
752.943	174.925
753.071	171.650
753.199	171.600
753.327	181.075
753.455	171.238
753.583	164.912
753.712	173.463
753.840	170.575
753.968	173.312
754.096	168.775
754.224	169.687
754.352	162.262
754.480	167.562
754.608	164.100
754.737	170.675
754.865	168.725
754.993	174.100
755.121	164.162
755.249	175.125
755.377	166.463
755.505	162.650
755.633	180.863
755.762	165.613
755.890	180.662
756.018	175.137
756.146	166.825
756.274	170.325
756.402	161.150
756.530	169.925
756.658	177.312
756.787	164.662
756.915	161.412
757.043	167.475
757.171	167.787
757.299	163.437
757.427	162.312
757.555	163.625
757.683	168.625
757.812	166.000
757.940	168.850
758.068	164.937
758.196	160.425
758.324	164.988
758.452	161.812
758.580	162.463
758.708	164.975
758.837	159.887
758.965	175.512
759.093	162.525
759.221	161.262
759.349	157.350
759.477	160.713
759.605	158.012
759.733	160.600
759.862	166.275
759.990	155.338
760.118	164.325
760.246	157.775
760.374	161.775
760.502	161.787
760.630	159.613
760.758	153.937
760.887	155.713
761.015	153.387
761.143	155.875
761.271	157.312
761.399	159.838
761.527	157.400
761.655	155.775
761.783	157.463
761.912	150.350
762.040	161.113
762.168	154.550
762.296	154.213
762.424	153.725
762.552	157.950
762.680	158.312
762.808	153.450
762.937	156.988
763.065	156.425
763.193	159.950
763.321	156.375
763.449	149.562
763.577	157.225
763.705	158.363
763.833	177.200
763.962	152.350
764.090	152.012
764.218	153.937
764.346	155.200
764.474	150.375
764.602	152.825
764.730	154.675
764.858	152.562
764.987	153.550
765.115	162.375
765.243	162.113
765.371	149.088
765.499	147.662
765.627	152.325
765.755	147.213
765.883	148.113
766.012	153.100
766.140	147.825
766.268	150.012
766.396	149.887
766.524	148.113
766.652	144.325
766.780	145.637
766.908	152.137
767.037	150.787
767.165	147.525
767.293	155.475
767.421	148.088
767.549	147.137
767.677	151.525
767.805	145.325
767.933	146.800
768.062	145.825
768.190	146.137
768.318	141.625
768.446	157.187
768.574	150.750
768.702	149.912
768.830	147.075
768.958	146.225
769.087	150.975
769.215	145.200
769.343	144.912
769.471	147.238
769.599	147.988
769.727	145.650
769.855	143.412
769.983	142.550
770.112	143.437
770.240	146.312
770.368	142.988
770.496	143.588
770.624	137.562
770.752	146.363
770.880	158.613
771.008	141.838
771.137	146.363
771.265	145.088
771.393	141.562
771.521	146.100
771.649	141.512
771.777	140.150
771.905	146.350
772.033	145.213
772.162	147.838
772.290	143.588
772.418	150.738
772.546	138.975
772.674	140.838
772.802	145.363
772.930	141.625
773.058	139.713
773.187	145.125
773.315	143.738
773.443	144.250
773.571	139.963
773.699	137.787
773.827	137.825
773.955	140.150
774.083	155.825
774.212	138.300
774.340	140.950
774.468	141.137
774.596	140.412
774.724	147.512
774.852	133.887
774.980	141.312
775.108	138.738
775.237	136.037
775.365	139.713
775.493	138.900
775.621	136.088
775.749	137.687
775.877	142.875
776.005	135.588
776.133	139.175
776.262	138.475
776.390	131.375
776.518	145.162
776.646	132.200
776.774	131.525
776.902	139.088
777.030	135.187
777.158	137.325
777.287	137.775
777.415	134.050
777.543	132.500
777.671	133.963
777.799	133.875
777.927	135.350
778.055	137.912
778.183	139.575
778.312	131.800
778.440	131.238
778.568	138.850
778.696	132.975
778.824	139.338
778.952	136.887
779.080	133.900
779.208	140.625
779.337	134.762
779.465	136.025
779.593	135.687
779.721	138.050
779.849	130.300
779.977	135.838
780.105	133.050
780.233	135.637
780.362	139.838
780.490	137.400
780.618	134.975
780.746	135.262
780.874	130.588
781.002	132.613
781.130	131.600
781.258	128.387
781.387	137.175
781.515	131.250
781.643	129.713
781.771	137.713
781.899	134.162
782.027	131.787
782.155	132.400
782.283	130.075
782.412	134.613
782.540	134.562
782.668	132.213
782.796	127.375
782.924	131.287
783.052	125.537
783.180	134.325
783.308	127.638
783.437	135.175
783.565	133.325
783.693	132.825
783.821	135.187
783.949	129.225
784.077	133.187
784.205	134.062
784.333	143.887
784.462	128.762
784.590	132.588
784.718	131.725
784.846	126.250
784.974	133.775
785.102	139.137
785.230	129.750
785.358	140.250
785.487	130.925
785.615	131.150
785.743	127.100
785.871	124.975
785.999	129.300
786.127	121.713
786.255	135.975
786.383	133.450
786.512	129.450
786.640	124.463
786.768	131.613
786.896	128.988
787.024	130.488
787.152	126.350
787.280	124.287
787.408	127.487
787.537	127.775
787.665	129.725
787.793	127.412
787.921	130.988
788.049	123.437
788.177	123.388
788.305	124.300
788.433	128.650
788.562	124.037
788.690	123.275
788.818	124.537
788.946	123.638
789.074	123.700
789.202	127.600
789.330	123.062
789.458	126.300
789.587	126.862
789.715	126.412
789.843	127.513
789.971	123.475
790.099	118.787
790.227	123.062
790.355	123.638
790.483	126.475
790.612	126.500
790.740	125.200
790.868	131.000
790.996	126.062
791.124	125.062
791.252	123.588
791.380	126.875
791.508	123.750
791.637	134.400
791.765	119.987
791.893	117.787
792.021	124.750
792.149	122.325
792.277	122.150
792.405	121.375
792.533	130.588
792.662	119.450
792.790	124.550
792.918	127.500
793.046	122.013
793.174	126.125
793.302	125.362
793.430	126.862
793.558	131.512
793.687	119.162
793.815	128.100
793.943	124.787
794.071	123.062
794.199	122.737
794.327	124.463
794.455	141.662
794.583	137.950
794.712	128.850
794.840	125.550
794.968	123.463
795.096	126.625
795.224	119.713
795.352	121.162
795.480	126.088
795.608	123.875
795.737	124.475
795.865	124.725
795.993	116.925
796.121	119.588
796.249	122.437
796.377	124.350
796.505	128.650
796.633	119.588
796.762	120.312
796.890	131.387
797.018	122.400
797.146	120.875
797.274	118.400
797.402	120.500
797.530	123.500
797.658	119.200
797.787	129.037
797.915	123.412
798.043	128.713
798.171	129.312
798.299	122.225
798.427	121.287
798.555	121.338
798.683	117.100
798.812	121.562
798.940	121.612
799.068	121.338
799.196	128.412
799.324	117.975
799.452	127.325
799.580	119.062
799.708	127.463
799.837	120.175
799.965	118.338
800.093	116.987
800.221	121.937
800.349	122.763
800.477	121.687
800.605	121.800
800.733	123.300
800.862	122.437
800.990	133.875
801.118	121.187
801.246	117.112
801.374	118.537
801.502	122.787
801.630	115.213
801.758	118.237
801.887	124.213
802.015	117.075
802.143	119.625
802.271	120.213
802.399	125.725
802.527	122.638
802.655	122.987
802.783	128.325
802.912	122.875
803.040	118.375
803.168	116.838
803.296	117.263
803.424	117.463
803.552	118.900
803.680	114.300
803.808	116.588
803.937	115.237
804.065	120.625
804.193	115.175
804.321	119.612
804.449	118.375
804.577	117.950
804.705	118.950
804.833	114.713
804.962	123.937
805.090	116.250
805.218	117.638
805.346	114.800
805.474	118.037
805.602	126.388
805.730	117.963
805.858	115.487
805.987	123.875
806.115	124.500
806.243	117.388
806.371	114.200
806.499	114.213
806.627	114.100
806.755	123.625
806.883	116.525
807.012	121.000
807.140	120.013
807.268	115.925
807.396	118.037
807.524	114.150
807.652	116.437
807.780	125.500
807.908	115.725
808.037	123.187
808.165	120.888
808.293	117.838
808.421	126.362
808.549	118.525
808.677	113.112
808.805	125.437
808.933	117.338
809.062	115.037
809.190	138.162
809.318	118.575
809.446	114.062
809.574	114.112
809.702	114.138
809.830	114.862
809.958	117.838
810.087	115.650
810.215	120.812
810.343	130.012
810.471	121.300
810.599	112.787
810.727	112.487
810.855	113.088
810.983	117.037
811.112	116.537
811.240	116.775
811.368	114.612
811.496	123.375
811.624	115.025
811.752	114.150
811.880	110.362
812.008	110.362
812.137	111.812
812.265	113.588
812.393	116.138
812.521	117.325
812.649	116.237
812.777	116.825
812.905	117.862
813.033	112.200
813.162	111.862
813.290	111.638
813.418	122.138
813.546	117.150
813.674	114.888
813.802	118.850
813.930	114.100
814.058	109.200
814.187	108.100
814.315	113.725
814.443	113.037
814.571	108.575
814.699	118.450
814.827	116.250
814.955	113.338
815.083	114.513
815.212	116.875
815.340	115.750
815.468	112.963
815.596	114.638
815.724	110.725
815.852	110.612
815.980	112.187
816.108	113.763
816.237	114.400
816.365	112.450
816.493	116.750
816.621	111.037
816.749	113.037
816.877	114.975
817.005	116.450
817.133	113.750
817.262	110.562
817.390	117.588
817.518	114.200
817.646	116.987
817.774	113.775
817.902	120.213
818.030	110.050
818.158	115.900
818.287	115.338
818.415	108.725
818.543	111.625
818.671	116.850
818.799	114.312
818.927	116.088
819.055	111.088
819.183	109.838
819.312	113.650
819.440	113.450
819.568	111.250
819.696	118.912
819.824	116.100
819.952	111.437
820.080	112.463
820.208	112.312
820.337	111.787
820.465	109.750
820.593	113.875
820.721	114.263
820.849	113.675
820.977	112.112
821.105	113.500
821.233	108.350
821.362	116.162
821.490	111.775
821.618	111.625
821.746	111.213
821.874	113.888
822.002	112.638
822.130	117.500
822.258	110.662
822.387	109.650
822.515	109.537
822.643	109.675
822.771	110.475
822.899	113.225
823.027	111.525
823.155	108.975
823.283	110.775
823.412	112.388
823.540	113.575
823.668	128.250
823.796	110.775
823.924	114.800
824.052	116.237
824.180	109.112
824.308	108.963
824.437	109.687
824.565	108.812
824.693	113.112
824.821	110.525
824.949	110.237
825.077	114.112
825.205	112.963
825.333	113.513
825.462	112.700
825.590	106.888
825.718	116.050
825.846	111.963
825.974	113.237
826.102	114.225
826.230	113.900
826.358	112.275
826.487	106.713
826.615	106.963
826.743	111.162
826.871	112.675
826.999	112.287
827.127	112.537
827.255	109.388
827.383	107.838
827.512	114.675
827.640	113.862
827.768	110.750
827.896	111.050
828.024	111.888
828.152	109.175
828.280	109.112
828.408	110.638
828.537	108.162
828.665	110.787
828.793	110.200
828.921	112.463
829.049	112.838
829.177	107.687
829.305	107.275
829.433	105.525
829.562	107.575
829.690	108.912
829.818	112.225
829.946	111.437
830.074	110.312
830.202	111.838
830.330	113.375
830.458	109.138
830.587	110.925
830.715	108.750
830.843	109.162
830.971	109.325
831.099	114.825
831.227	108.475
831.355	108.737
831.483	110.150
831.612	108.925
831.740	109.125
831.868	121.200
831.996	107.062
832.124	110.000
832.252	107.713
832.380	110.275
832.508	117.350
832.637	110.812
832.765	110.162
832.893	115.562
833.021	115.062
833.149	108.963
833.277	107.225
833.405	106.037
833.533	109.850
833.662	108.687
833.790	110.650
833.918	111.537
834.046	111.787
834.174	116.600
834.302	111.225
834.430	108.487
834.558	119.375
834.687	111.612
834.815	111.987
834.943	108.588
835.071	109.838
835.199	108.687
835.327	112.825
835.455	108.362
835.583	111.963
835.712	108.162
835.840	109.638
835.968	107.275
836.096	108.187
836.224	115.275
836.352	111.138
836.480	110.513
836.608	115.875
836.737	106.588
836.865	106.862
836.993	106.200
837.121	108.187
837.249	109.338
837.377	111.513
837.505	114.375
837.633	111.838
837.762	109.062
837.890	115.850
838.018	112.838
838.146	108.362
838.274	114.450
838.402	108.463
838.530	109.300
838.658	104.737
838.787	108.875
838.915	108.900
839.043	110.800
839.171	115.862
839.299	113.713
839.427	111.138
839.555	118.338
839.683	110.362
839.812	109.800
839.940	109.138
840.068	111.500
840.196	109.213
840.324	114.037
840.452	111.987
840.580	115.812
840.708	110.412
840.837	110.787
840.965	109.825
841.093	111.838
841.221	110.050
841.349	115.725
841.477	111.325
841.605	106.275
841.733	106.812
841.862	110.275
841.990	111.187
842.118	108.875
842.246	105.987
842.374	107.013
842.502	108.088
842.630	108.062
842.758	109.888
842.887	106.950
843.015	110.287
843.143	113.737
843.271	110.187
843.399	110.525
843.527	108.450
843.655	106.013
843.783	105.375
843.912	107.888
844.040	113.037
844.168	117.287
844.296	113.237
844.424	107.537
844.552	111.800
844.680	115.862
844.808	112.850
844.937	109.963
845.065	111.112
845.193	112.187
845.321	107.513
845.449	105.963
845.577	107.050
845.705	108.112
845.833	111.375
845.962	106.937
846.090	109.225
846.218	112.625
846.346	111.838
846.474	109.475
846.602	108.175
846.730	107.200
846.858	107.013
846.987	105.125
847.115	108.950
847.243	109.937
847.371	109.775
847.499	108.750
847.627	106.987
847.755	107.213
847.883	110.025
848.012	111.175
848.140	111.150
848.268	108.525
848.396	109.850
848.524	106.537
848.652	107.362
848.780	107.187
848.908	114.600
849.037	110.825
849.165	109.937
849.293	110.400
849.421	109.050
849.549	110.112
849.677	110.600
849.805	113.138
849.933	109.912
850.062	110.812
850.190	110.138
850.318	108.600
850.446	109.312
850.574	106.812
850.702	110.075
850.830	108.300
850.958	109.312
851.087	109.825
851.215	115.250
851.343	107.912
851.471	108.075
851.599	108.987
851.727	110.013
851.855	108.612
851.983	109.037
852.112	108.925
852.240	110.500
852.368	107.475
852.496	108.200
852.624	106.475
852.752	109.400
852.880	106.638
853.008	112.900
853.137	117.812
853.265	108.300
853.393	112.175
853.521	114.412
853.649	117.525
853.777	108.250
853.905	108.625
854.033	108.263
854.162	108.575
854.290	108.800
854.418	105.987
854.546	106.450
854.674	108.300
854.802	108.638
854.930	106.338
855.058	106.062
855.187	106.912
855.315	108.862
855.443	105.463
855.571	107.250
855.699	108.500
855.827	108.638
855.955	107.312
856.083	106.400
856.212	107.987
856.340	109.175
856.468	108.450
856.596	109.187
856.724	110.588
856.852	107.213
856.980	106.225
857.108	108.800
857.237	112.600
857.365	110.713
857.493	105.562
857.621	105.338
857.749	108.737
857.877	106.800
858.005	112.475
858.133	108.675
858.262	107.763
858.390	106.937
858.518	105.987
858.646	109.013
858.774	109.187
858.902	107.287
859.030	109.062
859.158	107.838
859.287	109.437
859.415	108.150
859.543	106.588
859.671	111.675
859.799	111.300
859.927	107.963
860.055	109.775
860.183	109.638
860.312	109.463
860.440	109.000
860.568	112.950
860.696	108.987
860.824	120.687
860.952	107.450
861.080	110.263
861.208	109.250
861.337	108.963
861.465	109.213
861.593	111.513
861.721	107.112
861.849	106.838
861.977	109.475
862.105	109.838
862.233	106.062
862.362	108.612
862.490	105.812
862.618	104.513
862.746	107.125
862.874	105.162
863.002	109.263
863.130	111.287
863.258	109.588
863.387	109.187
863.515	109.013
863.643	105.787
863.771	109.800
863.899	110.312
864.027	106.737
864.155	106.513
864.283	105.950
864.412	107.700
864.540	107.325
864.668	105.088
864.796	111.275
864.924	108.412
865.052	117.375
865.180	108.400
865.308	104.275
865.437	109.812
865.565	111.300
865.693	108.263
865.821	111.400
865.949	106.937
866.077	108.062
866.205	105.487
866.333	106.937
866.462	108.787
866.590	107.112
866.718	109.838
866.846	109.013
866.974	108.050
867.102	111.025
867.230	108.437
867.358	109.125
867.487	107.575
867.615	107.125
867.743	107.812
867.871	110.300
867.999	106.513
868.127	106.138
868.255	116.612
868.383	113.312
868.512	106.638
868.640	110.000
868.768	108.400
868.896	108.763
869.024	111.638
869.152	117.075
869.280	110.412
869.408	106.975
869.537	107.350
869.665	108.713
869.793	106.525
869.921	111.612
870.049	111.325
870.177	112.575
870.305	120.550
870.433	111.937
870.562	107.713
870.690	108.463
870.818	106.037
870.946	106.513
871.074	107.900
871.202	109.062
871.330	107.162
871.458	105.838
871.587	104.862
871.715	106.937
871.843	107.500
871.971	107.875
872.099	105.725
872.227	107.575
872.355	108.862
872.483	107.463
872.612	107.912
872.740	111.237
872.868	106.937
872.996	109.875
873.124	110.275
873.252	109.937
873.380	109.487
873.508	109.575
873.637	108.950
873.765	111.612
873.893	110.875
874.021	108.750
874.149	109.025
874.277	111.838
874.405	113.088
874.533	108.700
874.662	343.437
874.790	114.213
874.918	116.000
875.046	108.513
875.174	107.338
875.302	106.125
875.430	105.763
875.558	108.450
875.687	111.487
875.815	107.562
875.943	112.000
876.071	110.812
876.199	109.850
876.327	113.763
876.455	110.000
876.583	106.875
876.712	107.687
876.840	110.838
876.968	107.025
877.096	108.375
877.224	105.888
877.352	105.888
877.480	104.425
877.608	107.350
877.737	110.575
877.865	110.250
877.993	112.338
878.121	106.713
878.249	110.600
878.377	107.162
878.505	105.713
878.633	105.250
878.762	106.425
878.890	108.500
879.018	108.550
879.146	112.513
879.274	107.200
879.402	109.050
879.530	107.838
879.658	109.450
879.787	110.125
879.915	107.687
880.043	108.987
880.171	110.225
880.299	106.588
880.427	108.800
880.555	110.662
880.683	111.662
880.812	110.662
880.940	110.100
881.068	109.838
881.196	107.400
881.324	108.612
881.452	107.450
881.580	108.612
881.708	108.537
881.837	105.787
881.965	107.175
882.093	107.075
882.221	107.912
882.349	115.325
882.477	115.800
882.605	114.862
882.733	112.912
882.862	105.075
882.990	105.513
883.118	106.975
883.246	110.737
883.374	109.562
883.502	106.737
883.630	105.263
883.758	106.900
883.887	107.700
884.015	107.362
884.143	109.275
884.271	107.763
884.399	108.250
884.527	104.862
884.655	107.525
884.783	109.350
884.912	107.588
885.040	109.412
885.168	105.112
885.296	106.737
885.424	109.287
885.552	109.763
885.680	108.463
885.808	109.050
885.937	113.912
886.065	110.575
886.193	108.150
886.321	107.513
886.449	108.750
886.577	108.525
886.705	108.638
886.833	107.112
886.962	107.925
887.090	105.575
887.218	108.362
887.346	109.775
887.474	113.612
887.602	112.963
887.730	107.075
887.858	107.463
887.987	111.325
888.115	115.713
888.243	111.088
888.371	109.925
888.499	109.588
888.627	109.138
888.755	107.987
888.883	106.013
889.012	107.537
889.140	108.600
889.268	113.250
889.396	110.725
889.524	106.937
889.652	108.475
889.780	107.763
889.908	108.400
890.037	108.437
890.165	109.075
890.293	110.050
890.421	118.763
890.549	109.162
890.677	112.400
890.805	107.287
890.933	107.300
891.062	108.612
891.190	110.562
891.318	108.875
891.446	107.737
891.574	107.875
891.702	106.850
891.830	105.687
891.958	107.350
892.087	110.975
892.215	105.937
892.343	108.838
892.471	108.263
892.599	112.937
892.727	115.862
892.855	111.213
892.983	108.312
893.112	109.325
893.240	110.862
893.368	110.812
893.496	111.062
893.624	108.987
893.752	112.250
893.880	112.013
894.008	109.325
894.137	109.388
894.265	110.912
894.393	111.388
894.521	111.800
894.649	111.487
894.777	106.463
894.905	107.963
895.033	116.850
895.162	112.000
895.290	116.625
895.418	113.463
895.546	112.700
895.674	120.000
895.802	107.325
895.930	109.838
896.058	105.687
896.187	108.350
896.315	109.350
896.443	111.350
896.571	112.338
896.699	110.312
896.827	112.250
896.955	112.600
897.083	112.200
897.212	109.388
897.340	107.463
897.468	108.937
897.596	108.737
897.724	108.062
897.852	109.612
897.980	107.638
898.108	107.650
898.237	107.888
898.365	106.025
898.493	107.150
898.621	107.725
898.749	107.412
898.877	109.763
899.005	109.963
899.133	109.175
899.262	108.225
899.390	107.550
899.518	109.875
899.646	110.737
899.774	116.187
899.902	121.687
900.030	113.338
900.158	110.325
900.287	114.862
900.415	107.638
900.543	107.013
900.671	112.700
900.799	111.550
900.927	111.687
901.055	110.950
901.183	110.225
901.312	108.888
901.440	110.888
901.568	109.550
901.696	111.062
901.824	113.175
901.952	117.537
902.080	112.838
902.208	110.800
902.337	113.100
902.465	113.013
902.593	112.200
902.721	110.900
902.849	111.463
902.977	107.588
903.105	115.862
903.233	118.662
903.362	111.838
903.490	112.187
903.618	108.700
903.746	114.650
903.874	109.588
904.002	110.737
904.130	111.963
904.258	112.862
904.387	109.200
904.515	111.275
904.643	109.638
904.771	108.537
904.899	113.525
905.027	111.812
905.155	107.388
905.283	115.250
905.412	115.312
905.540	113.338
905.668	107.575
905.796	109.125
905.924	112.175
906.052	115.787
906.180	114.800
906.308	117.088
906.437	114.138
906.565	114.975
906.693	111.900
906.821	108.888
906.949	108.775
907.077	110.862
907.205	114.050
907.333	114.750
907.462	114.350
907.590	113.838
907.718	113.675
907.846	114.200
907.974	115.100
908.102	108.687
908.230	109.638
908.358	115.138
908.487	113.175
908.615	114.100
908.743	113.775
908.871	121.875
908.999	110.750
909.127	114.737
909.255	111.737
909.383	111.200
909.512	115.200
909.640	112.900
909.768	117.275
909.896	125.037
910.024	116.975
910.152	116.675
910.280	119.513
910.408	113.588
910.537	115.362
910.665	117.263
910.793	118.112
910.921	120.200
911.049	115.525
911.177	113.588
911.305	118.700
911.433	115.412
911.562	115.088
911.690	112.350
911.818	127.350
911.946	126.388
912.074	115.625
912.202	112.187
912.330	123.713
912.458	114.025
912.587	116.612
912.715	116.125
912.843	112.713
912.971	119.987
913.099	113.825
913.227	118.575
913.355	121.475
913.483	120.575
913.612	114.838
913.740	125.075
913.868	121.100
