Referenz_HF_PS_at_750.00nm_cut_at_1008.00Y_01.dat
15.05.2023
12:41:25
cut middle at Y: 1008.00
top cursor: 1048 down cursor: 968 mean of: 80 lines , 2560 datapoints
wavelength(nm)	intensity[arb. units]
585.996	3822.412
586.124	3722.687
586.252	3672.900
586.380	3700.187
586.508	3729.312
586.637	3682.700
586.765	3686.713
586.893	3690.238
587.021	3703.675
587.149	3765.213
587.277	3728.037
587.405	3775.012
587.533	3699.725
587.662	3851.250
587.790	3827.950
587.918	3716.600
588.046	3748.762
588.174	3725.062
588.302	3767.312
588.430	3738.363
588.558	3741.850
588.687	3764.062
588.815	3764.363
588.943	3717.762
589.071	3718.050
589.199	3755.687
589.327	3724.863
589.455	3702.600
589.583	3805.363
589.712	3729.775
589.840	3718.925
589.968	3701.213
590.096	3674.350
590.224	3735.963
590.352	3690.037
590.480	3721.387
590.608	3694.613
590.737	3750.900
590.865	3767.225
590.993	3635.750
591.121	3697.162
591.249	3695.213
591.377	3661.975
591.505	3667.925
591.633	3728.162
591.762	3668.037
591.890	3818.238
592.018	3640.488
592.146	3615.550
592.274	3670.387
592.402	3634.725
592.530	3649.162
592.658	3803.275
592.787	3680.900
592.915	3793.525
593.043	3650.575
593.171	3646.750
593.299	3651.062
593.427	3636.687
593.555	3608.100
593.683	3657.050
593.812	3648.213
593.940	3670.338
594.068	3662.613
594.196	3686.637
594.324	3675.125
594.452	3674.812
594.580	3681.463
594.708	3712.012
594.837	3718.100
594.965	3775.150
595.093	3744.088
595.221	3795.963
595.349	3890.312
595.477	3775.262
595.605	3775.075
595.733	3756.800
595.862	3955.588
595.990	3799.750
596.118	3813.437
596.246	3975.437
596.374	3854.725
596.502	3824.475
596.630	3876.363
596.758	3837.287
596.887	3839.762
597.015	3828.213
597.143	3852.475
597.271	3838.800
597.399	3830.137
597.527	3840.900
597.655	3851.150
597.783	3843.725
597.912	3822.650
598.040	3826.875
598.168	3891.500
598.296	3795.963
598.424	3840.762
598.552	3863.113
598.680	3781.787
598.808	3929.125
598.937	3761.812
599.065	3797.225
599.193	3883.488
599.321	3867.125
599.449	3759.088
599.577	3749.000
599.705	3811.412
599.833	3716.325
599.962	3733.775
600.090	3791.687
600.218	3771.912
600.346	3830.088
600.474	3695.725
600.602	3695.762
600.730	3735.762
600.858	3731.425
600.987	3862.463
601.115	3731.100
601.243	3713.287
601.371	3720.800
601.499	3736.387
601.627	3744.925
601.755	3746.088
601.883	3769.575
602.012	3755.463
602.140	3728.425
602.268	3835.700
602.396	3773.113
602.524	3813.488
602.652	3748.375
602.780	3786.463
602.908	3814.575
603.037	3849.350
603.165	3808.425
603.293	3860.825
603.421	3866.900
603.549	3884.812
603.677	3925.525
603.805	3907.875
603.933	3915.588
604.062	4024.812
604.190	3950.025
604.318	3924.900
604.446	3950.900
604.574	4014.463
604.702	3991.000
604.830	4011.963
604.958	4016.475
605.087	4028.200
605.215	4017.450
605.343	4034.287
605.471	4074.550
605.599	4080.537
605.727	4057.588
605.855	4110.988
605.983	4093.012
606.112	4087.750
606.240	4112.150
606.368	4114.387
606.496	4278.725
606.624	4083.838
606.752	4151.825
606.880	4281.575
607.008	4355.950
607.137	4288.812
607.265	4115.175
607.393	4171.062
607.521	4262.100
607.649	4137.137
607.777	4182.663
607.905	4192.725
608.033	4175.837
608.162	4117.850
608.290	4213.275
608.418	4142.337
608.546	4189.988
608.674	4205.650
608.802	4114.587
608.930	4092.887
609.058	4104.512
609.187	4165.812
609.315	4148.437
609.443	4060.713
609.571	4179.887
609.699	4072.575
609.827	4090.300
609.955	4128.988
610.083	4044.387
610.212	4055.338
610.340	4057.350
610.468	4161.750
610.596	4109.400
610.724	4122.163
610.852	4045.687
610.980	4042.825
611.108	4136.450
611.237	4032.738
611.365	4031.687
611.493	4021.762
611.621	4021.825
611.749	4045.412
611.877	4035.100
612.005	4054.338
612.133	4039.613
612.262	4020.588
612.390	4045.838
612.518	4095.550
612.646	4154.613
612.774	4045.525
612.902	4028.887
613.030	4028.262
613.158	4123.738
613.287	4086.338
613.415	4028.637
613.543	4049.350
613.671	4059.825
613.799	4094.350
613.927	4103.087
614.055	4065.863
614.183	4219.012
614.312	4084.312
614.440	4224.200
614.568	4118.988
614.696	4111.050
614.824	4286.850
614.952	4160.150
615.080	4103.762
615.208	4175.750
615.337	4161.812
615.465	4164.887
615.593	4186.975
615.721	4216.587
615.849	4230.863
615.977	4233.150
616.105	4296.225
616.233	4207.675
616.362	4305.725
616.490	4200.962
616.618	4171.775
616.746	4280.212
616.874	4305.100
617.002	4276.187
617.130	4324.675
617.258	4419.375
617.387	4288.300
617.515	4252.200
617.643	4286.087
617.771	4367.587
617.899	4357.562
618.027	4270.913
618.155	4431.038
618.283	4306.312
618.412	4325.275
618.540	4403.125
618.668	4350.462
618.796	4353.113
618.924	4459.113
619.052	4324.337
619.180	4331.850
619.308	4378.012
619.437	4364.312
619.565	4375.762
619.693	4355.375
619.821	4368.125
619.949	4356.050
620.077	4395.225
620.205	4427.788
620.333	4400.413
620.462	4405.238
620.590	4465.525
620.718	4356.075
620.846	4456.788
620.974	4476.450
621.102	4415.975
621.230	4312.775
621.358	4489.375
621.487	4334.512
621.615	4358.187
621.743	4351.262
621.871	4367.175
621.999	4450.488
622.127	4387.050
622.255	4369.425
622.383	4351.812
622.512	4349.137
622.640	4519.500
622.768	4304.837
622.896	4338.250
623.024	4321.150
623.152	4418.075
623.280	4389.962
623.408	4285.200
623.537	4337.312
623.665	4283.975
623.793	4325.450
623.921	4293.225
624.049	4284.562
624.177	4307.937
624.305	4347.425
624.433	4325.850
624.562	4308.175
624.690	4325.950
624.818	4351.812
624.946	4461.625
625.074	4316.950
625.202	4269.925
625.330	4230.150
625.458	4323.863
625.587	4256.525
625.715	4326.125
625.843	4392.375
625.971	4265.550
626.099	4262.150
626.227	4264.825
626.355	4249.975
626.483	4349.988
626.612	4224.250
626.740	4200.275
626.868	4296.413
626.996	4217.012
627.124	4247.937
627.252	4209.062
627.380	4259.913
627.508	4216.775
627.637	4189.600
627.765	4241.887
627.893	4214.975
628.021	4211.725
628.149	4250.750
628.277	4261.163
628.405	4321.875
628.533	4184.137
628.662	4275.962
628.790	4206.700
628.918	4230.062
629.046	4235.863
629.174	4245.437
629.302	4345.825
629.430	4225.275
629.558	4276.012
629.687	4278.975
629.815	4243.300
629.943	4311.562
630.071	4314.038
630.199	4285.387
630.327	4292.750
630.455	4255.387
630.583	4389.387
630.712	4313.800
630.840	4314.025
630.968	4358.250
631.096	4290.788
631.224	4295.613
631.352	4313.363
631.480	4359.762
631.608	4317.062
631.737	4415.863
631.865	4515.775
631.993	4335.762
632.121	4459.663
632.249	4426.100
632.377	4415.137
632.505	4417.663
632.633	4317.200
632.762	4417.913
632.890	4491.900
633.018	4345.387
633.146	4382.450
633.274	4398.288
633.402	4379.163
633.530	4356.038
633.658	4515.288
633.787	4339.363
633.915	4444.988
634.043	4362.475
634.171	4349.788
634.299	4412.275
634.427	4475.200
634.555	4423.550
634.683	4357.038
634.812	4339.587
634.940	4358.700
635.068	4301.887
635.196	4375.538
635.324	4345.675
635.452	4427.050
635.580	4309.800
635.708	4317.500
635.837	4368.675
635.965	4343.062
636.093	4317.637
636.221	4301.387
636.349	4385.863
636.477	4250.913
636.605	4435.262
636.733	4234.488
636.862	4275.413
636.990	4289.900
637.118	4342.100
637.246	4304.675
637.374	4233.075
637.502	4208.825
637.630	4197.150
637.758	4219.525
637.887	4202.163
638.015	4197.600
638.143	4194.675
638.271	4176.350
638.399	4150.087
638.527	4163.625
638.655	4138.462
638.783	4297.288
638.912	4189.712
639.040	4129.675
639.168	4154.337
639.296	4125.150
639.424	4227.562
639.552	4076.675
639.680	4139.187
639.808	4135.275
639.937	4061.937
640.065	4061.450
640.193	4151.575
640.321	4024.887
640.449	4113.325
640.577	4160.788
640.705	4048.863
640.833	4168.762
640.962	4042.637
641.090	4026.175
641.218	4006.300
641.346	4041.713
641.474	4072.512
641.602	4021.050
641.730	4000.537
641.858	4033.437
641.987	4040.500
642.115	4001.775
642.243	4069.037
642.371	4040.537
642.499	4041.387
642.627	4044.350
642.755	4071.738
642.883	4061.988
643.012	4024.412
643.140	3986.412
643.268	4013.300
643.396	4020.613
643.524	4113.300
643.652	3977.387
643.780	3999.012
643.908	4012.887
644.037	4102.587
644.165	3995.100
644.293	3999.900
644.421	3978.537
644.549	4046.887
644.677	4001.912
644.805	4032.412
644.933	3992.400
645.062	3987.550
645.190	3980.662
645.318	4073.200
645.446	4021.088
645.574	4025.437
645.702	3980.012
645.830	4157.512
645.958	3969.887
646.087	4118.937
646.215	3959.150
646.343	4132.837
646.471	4015.750
646.599	4014.950
646.727	3946.312
646.855	3953.175
646.983	4008.537
647.112	3931.012
647.240	4121.275
647.368	3990.225
647.496	4026.988
647.624	3911.850
647.752	3928.850
647.880	3935.625
648.008	3911.775
648.137	3922.488
648.265	3900.475
648.393	3900.500
648.521	3913.662
648.649	3904.175
648.777	3900.312
648.905	3892.012
649.033	3877.650
649.162	3889.250
649.290	3850.863
649.418	3892.937
649.546	3894.512
649.674	3886.512
649.802	3845.463
649.930	3968.637
650.058	3781.613
650.187	3849.775
650.315	3771.312
650.443	3842.088
650.571	3778.863
650.699	3772.350
650.827	3734.012
650.955	3776.762
651.083	3769.575
651.212	3800.650
651.340	3814.350
651.468	3717.588
651.596	3713.613
651.724	3694.187
651.852	3701.613
651.980	3672.363
652.108	3765.925
652.237	3728.300
652.365	3746.775
652.493	3652.463
652.621	3666.887
652.749	3729.850
652.877	3645.512
653.005	3678.088
653.133	3612.187
653.262	3676.675
653.390	3605.475
653.518	3708.925
653.646	3645.488
653.774	3782.238
653.902	3604.262
654.030	3590.512
654.158	3571.875
654.287	3547.887
654.415	3579.950
654.543	3560.825
654.671	3579.825
654.799	3552.238
654.927	3508.238
655.055	3508.512
655.183	3538.488
655.312	3512.738
655.440	3526.062
655.568	3490.800
655.696	3559.162
655.824	3568.762
655.952	3479.537
656.080	3443.800
656.208	3590.875
656.337	3459.287
656.465	3507.812
656.593	3497.600
656.721	3435.562
656.849	3493.437
656.977	3402.700
657.105	3407.887
657.233	3383.137
657.362	3393.287
657.490	3389.213
657.618	3382.125
657.746	3360.000
657.874	3344.850
658.002	3343.713
658.130	3366.625
658.258	3307.363
658.387	3338.512
658.515	3312.950
658.643	3342.312
658.771	3322.350
658.899	3320.838
659.027	3305.675
659.155	3302.437
659.283	3465.213
659.412	3317.838
659.540	3376.050
659.668	3240.125
659.796	3297.725
659.924	3331.775
660.052	3248.312
660.180	3252.488
660.308	3264.575
660.437	3227.975
660.565	3207.437
660.693	3215.575
660.821	3215.312
660.949	3188.975
661.077	3185.650
661.205	3205.850
661.333	3173.363
661.462	3279.250
661.590	3192.500
661.718	3331.400
661.846	3253.125
661.974	3317.113
662.102	3160.925
662.230	3176.600
662.358	3136.250
662.487	3120.887
662.615	3096.463
662.743	3086.575
662.871	3088.812
662.999	3073.387
663.127	3087.725
663.255	3195.650
663.383	3151.850
663.512	3045.075
663.640	3093.537
663.768	3023.387
663.896	3064.662
664.024	3104.588
664.152	3041.500
664.280	3062.037
664.408	3035.912
664.537	3086.575
664.665	2982.812
664.793	2976.425
664.921	2991.512
665.049	2979.425
665.177	3005.275
665.305	2986.262
665.433	2998.363
665.562	2964.125
665.690	2995.588
665.818	3142.588
665.946	2974.425
666.074	2958.738
666.202	2926.437
666.330	3010.363
666.458	2991.613
666.587	2901.488
666.715	2927.838
666.843	2915.575
666.971	2887.600
667.099	2920.863
667.227	2896.137
667.355	2908.525
667.483	2900.900
667.612	2895.350
667.740	2902.687
667.868	2964.637
667.996	2861.900
668.124	2840.950
668.252	2848.537
668.380	2818.613
668.508	2869.325
668.637	2844.275
668.765	2836.275
668.893	2856.475
669.021	2791.738
669.149	2889.713
669.277	2869.450
669.405	2786.387
669.533	2780.675
669.662	3083.262
669.790	2797.075
669.918	2873.825
670.046	2762.387
670.174	2875.488
670.302	2834.537
670.430	2780.412
670.558	2834.575
670.687	2737.037
670.815	2938.925
670.943	2708.312
671.071	2731.512
671.199	2752.963
671.327	2705.100
671.455	2722.187
671.583	2698.025
671.712	2900.162
671.840	2707.238
671.968	2668.838
672.096	2676.012
672.224	2643.700
672.352	2848.238
672.480	2647.213
672.608	2608.287
672.737	2607.675
672.865	2824.988
672.993	2639.037
673.121	2598.062
673.249	2599.787
673.377	2582.925
673.505	2593.162
673.633	2595.613
673.762	2573.575
673.890	2590.550
674.018	2727.225
674.146	2576.988
674.274	2577.187
674.402	2671.350
674.530	2541.713
674.658	2570.200
674.787	2522.900
674.915	2514.113
675.043	2558.200
675.171	2546.100
675.299	2523.687
675.427	2532.187
675.555	2529.713
675.683	2521.775
675.812	2506.150
675.940	2500.312
676.068	2520.075
676.196	2486.412
676.324	2498.750
676.452	2474.812
676.580	2466.275
676.708	2482.750
676.837	2490.100
676.965	2444.025
677.093	2475.988
677.221	2436.762
677.349	2419.687
677.477	2409.600
677.605	2399.812
677.733	2418.562
677.862	2394.950
677.990	2393.387
678.118	2400.025
678.246	2366.700
678.374	2357.375
678.502	2365.412
678.630	2339.463
678.758	2349.625
678.887	2349.887
679.015	2347.600
679.143	2329.450
679.271	2318.213
679.399	2308.125
679.527	2297.113
679.655	2312.350
679.783	2298.700
679.912	2286.287
680.040	2311.562
680.168	2271.488
680.296	2246.725
680.424	2288.275
680.552	2279.562
680.680	2263.713
680.808	2240.375
680.937	2238.537
681.065	2250.787
681.193	2236.062
681.321	2249.475
681.449	2227.488
681.577	2223.887
681.705	2190.238
681.833	2191.375
681.962	2179.975
682.090	2207.450
682.218	2177.637
682.346	2179.300
682.474	2185.312
682.602	2182.363
682.730	2167.613
682.858	2165.213
682.987	2163.387
683.115	2132.425
683.243	2144.787
683.371	2141.738
683.499	2132.363
683.627	2158.950
683.755	2101.325
683.883	2126.713
684.012	2123.338
684.140	2096.625
684.268	2105.338
684.396	2093.650
684.524	2119.588
684.652	2108.750
684.780	2117.037
684.908	2096.387
685.037	2096.262
685.165	2094.200
685.293	2089.838
685.421	2077.838
685.549	2069.613
685.677	2071.200
685.805	2050.250
685.933	2070.137
686.062	2036.338
686.190	2049.275
686.318	2063.463
686.446	2048.613
686.574	2036.763
686.702	2044.237
686.830	2052.088
686.958	2020.687
687.087	2015.225
687.215	1997.388
687.343	2003.263
687.471	2015.412
687.599	1989.475
687.727	1987.187
687.855	2005.737
687.983	1993.175
688.112	1999.775
688.240	1976.862
688.368	1973.675
688.496	1964.963
688.624	1959.463
688.752	1952.725
688.880	1944.237
689.008	1927.338
689.137	1950.350
689.265	1931.963
689.393	1919.625
689.521	1931.237
689.649	1915.350
689.777	1932.562
689.905	1912.763
690.033	1912.112
690.162	1896.000
690.290	1888.787
690.418	1883.412
690.546	1917.900
690.674	1899.838
690.802	1874.725
690.930	1861.775
691.058	1869.475
691.187	1854.550
691.315	1875.088
691.443	1856.088
691.571	1849.687
691.699	1820.713
691.827	1841.763
691.955	1822.175
692.083	1812.338
692.212	1789.575
692.340	1826.300
692.468	1811.750
692.596	1787.362
692.724	1791.912
692.852	1777.900
692.980	1770.562
693.108	1771.963
693.237	1759.362
693.365	1750.138
693.493	1756.463
693.621	1740.963
693.749	1735.300
693.877	1725.912
694.005	1718.125
694.133	1738.213
694.262	1714.325
694.390	1691.400
694.518	1684.213
694.646	1682.388
694.774	1687.312
694.902	1673.612
695.030	1691.088
695.158	1662.100
695.287	1653.675
695.415	1655.112
695.543	1651.112
695.671	1631.787
695.799	1626.925
695.927	1625.162
696.055	1611.350
696.183	1633.162
696.312	1610.800
696.440	1594.275
696.568	1592.800
696.696	1588.987
696.824	1586.537
696.952	1578.875
697.080	1584.125
697.208	1593.463
697.337	1549.737
697.465	1550.838
697.593	1554.325
697.721	1541.713
697.849	1550.525
697.977	1533.662
698.105	1536.612
698.233	1539.050
698.362	1529.062
698.490	1514.237
698.618	1513.112
698.746	1499.513
698.874	1519.213
699.002	1524.513
699.130	1491.700
699.258	1492.600
699.387	1474.937
699.515	1470.325
699.643	1486.862
699.771	1474.713
699.899	1462.562
700.027	1457.375
700.155	1457.187
700.283	1455.862
700.412	1443.825
700.540	1430.625
700.668	1429.062
700.796	1421.675
700.924	1424.737
701.052	1425.750
701.180	1402.213
701.308	1402.562
701.437	1395.088
701.565	1389.912
701.693	1378.713
701.821	1411.638
701.949	1405.925
702.077	1375.162
702.205	1365.388
702.333	1372.525
702.462	1374.787
702.590	1351.687
702.718	1367.725
702.846	1346.700
702.974	1358.600
703.102	1341.388
703.230	1328.225
703.358	1323.725
703.487	1310.925
703.615	1327.725
703.743	1302.138
703.871	1324.487
703.999	1304.138
704.127	1296.025
704.255	1293.987
704.383	1293.338
704.512	1274.338
704.640	1267.588
704.768	1259.500
704.896	1258.175
705.024	1254.838
705.152	1251.237
705.280	1251.412
705.408	1244.213
705.537	1236.463
705.665	1235.725
705.793	1226.388
705.921	1219.937
706.049	1232.862
706.177	1220.375
706.305	1206.513
706.433	1208.325
706.562	1203.750
706.690	1194.725
706.818	1184.687
706.946	1179.350
707.074	1173.412
707.202	1171.100
707.330	1162.650
707.458	1178.225
707.587	1155.537
707.715	1158.062
707.843	1151.975
707.971	1162.787
708.099	1156.787
708.227	1128.900
708.355	1137.925
708.483	1133.513
708.612	1122.425
708.740	1127.388
708.868	1105.550
708.996	1120.237
709.124	1117.787
709.252	1107.737
709.380	1099.725
709.508	1087.525
709.637	1094.100
709.765	1085.963
709.893	1084.713
710.021	1084.737
710.149	1072.000
710.277	1083.525
710.405	1083.575
710.533	1069.425
710.662	1069.550
710.790	1059.737
710.918	1055.800
711.046	1048.162
711.174	1052.362
711.302	1037.825
711.430	1028.987
711.558	1039.975
711.687	1035.050
711.815	1016.288
711.943	1024.763
712.071	1019.300
712.199	1021.038
712.327	1003.562
712.455	1010.600
712.583	1001.962
712.712	1021.788
712.840	1002.587
712.968	997.612
713.096	995.450
713.224	975.575
713.352	984.937
713.480	973.650
713.608	971.462
713.737	967.038
713.865	963.263
713.993	953.875
714.121	956.763
714.249	956.013
714.377	947.388
714.505	952.400
714.633	943.837
714.762	934.788
714.890	938.712
715.018	935.087
715.146	922.100
715.274	929.900
715.402	913.450
715.530	916.000
715.658	917.638
715.787	918.550
715.915	904.875
716.043	904.437
716.171	910.700
716.299	913.675
716.427	898.150
716.555	898.138
716.683	888.700
716.812	888.962
716.940	888.400
717.068	864.888
717.196	883.587
717.324	863.350
717.452	872.062
717.580	857.562
717.708	856.437
717.837	868.000
717.965	856.187
718.093	848.125
718.221	844.725
718.349	847.675
718.477	840.913
718.605	836.062
718.733	838.962
718.862	830.275
718.990	830.000
719.118	833.913
719.246	826.175
719.374	819.462
719.502	828.900
719.630	831.225
719.758	819.825
719.887	811.587
720.015	818.075
720.143	793.237
720.271	794.900
720.399	802.775
720.527	799.888
720.655	784.925
720.783	796.350
720.912	791.462
721.040	795.763
721.168	784.038
721.296	787.275
721.424	770.513
721.552	775.013
721.680	769.337
721.808	783.075
721.937	773.538
722.065	764.862
722.193	754.538
722.321	768.750
722.449	748.450
722.577	747.788
722.705	741.913
722.833	748.650
722.962	757.925
723.090	730.138
723.218	726.638
723.346	736.875
723.474	736.325
723.602	728.163
723.730	725.825
723.858	737.175
723.987	728.612
724.115	719.388
724.243	718.200
724.371	710.800
724.499	711.175
724.627	713.612
724.755	710.250
724.883	706.962
725.012	704.187
725.140	695.125
725.268	694.212
725.396	684.487
725.524	691.413
725.652	678.350
725.780	683.700
725.908	676.025
726.037	682.788
726.165	674.925
726.293	656.388
726.421	664.138
726.549	675.450
726.677	662.462
726.805	665.150
726.933	665.175
727.062	654.150
727.190	647.100
727.318	650.500
727.446	654.913
727.574	648.200
727.702	646.862
727.830	634.775
727.958	646.825
728.087	636.337
728.215	624.550
728.343	620.837
728.471	634.175
728.599	614.925
728.727	629.225
728.855	624.462
728.983	613.725
729.112	616.538
729.240	613.375
729.368	606.000
729.496	607.312
729.624	606.038
729.752	608.462
729.880	605.413
730.008	603.825
730.137	598.975
730.265	590.013
730.393	584.062
730.521	587.888
730.649	587.812
730.777	592.538
730.905	579.687
731.033	581.513
731.162	580.487
731.290	585.888
731.418	583.913
731.546	598.087
731.674	565.850
731.802	570.425
731.930	568.625
732.058	567.362
732.187	562.525
732.315	558.650
732.443	559.187
732.571	545.587
732.699	549.925
732.827	549.163
732.955	544.437
733.083	545.150
733.212	546.737
733.340	544.250
733.468	540.937
733.596	537.925
733.724	534.175
733.852	542.288
733.980	534.350
734.108	536.687
734.237	539.663
734.365	524.550
734.493	533.888
734.621	526.288
734.749	526.175
734.877	526.562
735.005	511.937
735.133	518.913
735.262	518.700
735.390	506.137
735.518	513.038
735.646	506.750
735.774	507.187
735.902	508.325
736.030	506.012
736.158	513.288
736.287	506.675
736.415	506.200
736.543	496.413
736.671	491.187
736.799	496.113
736.927	503.538
737.055	487.650
737.183	492.788
737.312	487.975
737.440	492.950
737.568	500.788
737.696	488.712
737.824	489.950
737.952	491.325
738.080	487.587
738.208	486.000
738.337	475.913
738.465	487.962
738.593	463.700
738.721	465.488
738.849	474.387
738.977	472.300
739.105	466.538
739.233	471.075
739.362	462.700
739.490	452.375
739.618	453.475
739.746	457.613
739.874	472.000
740.002	451.325
740.130	447.475
740.258	453.038
740.387	450.187
740.515	445.100
740.643	445.262
740.771	460.300
740.899	443.325
741.027	438.250
741.155	450.300
741.283	436.000
741.412	433.863
741.540	431.437
741.668	429.462
741.796	429.600
741.924	440.050
742.052	433.913
742.180	430.475
742.308	429.175
742.437	424.200
742.565	426.200
742.693	427.512
742.821	422.812
742.949	417.100
743.077	427.500
743.205	422.175
743.333	414.425
743.462	418.637
743.590	417.413
743.718	409.375
743.846	416.750
743.974	409.113
744.102	401.075
744.230	407.950
744.358	399.750
744.487	416.200
744.615	403.875
744.743	402.562
744.871	401.087
744.999	401.525
745.127	390.863
745.255	390.500
745.383	403.613
745.512	401.725
745.640	389.587
745.768	387.538
745.896	389.250
746.024	391.575
746.152	383.050
746.280	389.525
746.408	388.900
746.537	387.100
746.665	389.450
746.793	376.025
746.921	382.512
747.049	386.625
747.177	385.212
747.305	367.850
747.433	378.387
747.562	371.125
747.690	368.625
747.818	373.825
747.946	368.562
748.074	382.775
748.202	366.087
748.330	362.863
748.458	368.413
748.587	366.613
748.715	356.175
748.843	360.175
748.971	360.012
749.099	356.038
749.227	357.850
749.355	349.850
749.483	360.375
749.612	351.600
749.740	352.337
749.868	349.962
749.996	348.113
750.124	348.050
750.252	352.437
750.380	346.200
750.508	345.613
750.637	342.413
750.765	339.375
750.893	337.238
751.021	345.050
751.149	340.113
751.277	351.775
751.405	345.700
751.533	348.125
751.662	341.587
751.790	352.350
751.918	346.175
752.046	335.075
752.174	328.675
752.302	338.562
752.430	337.863
752.558	328.887
752.687	333.675
752.815	336.075
752.943	330.375
753.071	324.663
753.199	321.238
753.327	331.087
753.455	321.712
753.583	315.300
753.712	320.913
753.840	315.900
753.968	324.175
754.096	312.137
754.224	317.200
754.352	312.475
754.480	308.363
754.608	307.663
754.737	313.050
754.865	314.038
754.993	313.337
755.121	308.988
755.249	313.812
755.377	305.762
755.505	305.363
755.633	326.600
755.762	298.738
755.890	316.200
756.018	310.562
756.146	300.538
756.274	304.687
756.402	293.600
756.530	302.913
756.658	304.200
756.787	296.988
756.915	287.775
757.043	299.650
757.171	298.250
757.299	295.413
757.427	293.550
757.555	287.800
757.683	297.863
757.812	292.400
757.940	291.387
758.068	285.150
758.196	281.788
758.324	289.738
758.452	280.587
758.580	283.950
758.708	290.687
758.837	285.738
758.965	291.100
759.093	284.125
759.221	279.337
759.349	279.075
759.477	277.275
759.605	272.900
759.733	278.075
759.862	280.113
759.990	275.562
760.118	279.913
760.246	273.275
760.374	268.913
760.502	276.762
760.630	271.587
760.758	266.725
760.887	261.200
761.015	262.150
761.143	269.650
761.271	266.062
761.399	262.550
761.527	264.275
761.655	265.038
761.783	266.950
761.912	257.988
762.040	265.413
762.168	264.225
762.296	262.913
762.424	254.062
762.552	256.637
762.680	260.413
762.808	252.800
762.937	258.500
763.065	255.738
763.193	257.025
763.321	254.775
763.449	250.325
763.577	245.113
763.705	254.950
763.833	270.950
763.962	248.700
764.090	248.700
764.218	248.375
764.346	250.200
764.474	242.887
764.602	246.113
764.730	243.787
764.858	245.050
764.987	240.037
765.115	251.700
765.243	248.488
765.371	236.275
765.499	236.912
765.627	237.925
765.755	239.425
765.883	236.512
766.012	237.325
766.140	232.950
766.268	234.963
766.396	234.650
766.524	230.312
766.652	233.025
766.780	229.150
766.908	232.125
767.037	234.512
767.165	230.800
767.293	239.113
767.421	229.787
767.549	227.338
767.677	233.325
767.805	225.675
767.933	231.350
768.062	227.775
768.190	226.700
768.318	226.787
768.446	235.838
768.574	231.037
768.702	227.350
768.830	222.687
768.958	218.738
769.087	227.175
769.215	219.787
769.343	218.412
769.471	222.700
769.599	221.762
769.727	216.262
769.855	220.562
769.983	218.775
770.112	217.512
770.240	222.175
770.368	218.963
770.496	214.687
770.624	216.500
770.752	217.000
770.880	225.375
771.008	214.262
771.137	213.387
771.265	216.575
771.393	212.225
771.521	212.150
771.649	208.713
771.777	209.250
771.905	212.012
772.033	215.113
772.162	211.838
772.290	213.412
772.418	215.200
772.546	202.887
772.674	204.787
772.802	205.238
772.930	208.562
773.058	203.700
773.187	206.875
773.315	208.863
773.443	202.875
773.571	199.525
773.699	198.775
773.827	199.650
773.955	205.750
774.083	217.137
774.212	198.625
774.340	203.437
774.468	202.850
774.596	202.350
774.724	205.400
774.852	189.175
774.980	197.150
775.108	197.787
775.237	189.975
775.365	194.275
775.493	194.925
775.621	196.275
775.749	196.887
775.877	199.312
776.005	190.762
776.133	194.575
776.262	198.162
776.390	186.012
776.518	198.937
776.646	190.662
776.774	189.950
776.902	192.838
777.030	189.950
777.158	192.738
777.287	188.062
777.415	189.613
777.543	188.037
777.671	183.200
777.799	185.000
777.927	191.875
778.055	186.037
778.183	187.000
778.312	184.613
778.440	183.387
778.568	185.062
778.696	183.012
778.824	189.875
778.952	182.363
779.080	182.225
779.208	190.088
779.337	184.162
779.465	190.437
779.593	181.475
779.721	186.387
779.849	181.850
779.977	183.713
780.105	179.125
780.233	180.025
780.362	189.488
780.490	183.025
780.618	180.425
780.746	180.000
780.874	174.625
781.002	172.187
781.130	175.050
781.258	172.488
781.387	180.800
781.515	175.088
781.643	174.562
781.771	183.812
781.899	173.875
782.027	175.912
782.155	176.425
782.283	168.213
782.412	172.488
782.540	176.887
782.668	171.775
782.796	169.088
782.924	171.187
783.052	164.875
783.180	175.238
783.308	169.113
783.437	170.825
783.565	171.975
783.693	173.537
783.821	173.937
783.949	169.475
784.077	169.512
784.205	173.637
784.333	175.800
784.462	164.187
784.590	171.400
784.718	169.137
784.846	164.575
784.974	170.150
785.102	174.713
785.230	168.687
785.358	175.725
785.487	168.100
785.615	169.975
785.743	161.525
785.871	163.850
785.999	167.662
786.127	159.375
786.255	173.350
786.383	170.187
786.512	161.613
786.640	162.113
786.768	169.850
786.896	162.350
787.024	164.738
787.152	159.500
787.280	156.738
787.408	157.925
787.537	160.037
787.665	156.425
787.793	162.600
787.921	163.400
788.049	159.012
788.177	157.650
788.305	155.150
788.433	161.088
788.562	155.287
788.690	153.475
788.818	155.225
788.946	154.050
789.074	153.162
789.202	154.213
789.330	155.363
789.458	156.338
789.587	155.050
789.715	155.738
789.843	156.475
789.971	155.187
790.099	152.412
790.227	156.113
790.355	148.800
790.483	158.525
790.612	153.713
790.740	153.137
790.868	163.350
790.996	152.450
791.124	157.012
791.252	153.387
791.380	157.762
791.508	151.437
791.637	161.275
791.765	145.637
791.893	150.025
792.021	155.300
792.149	147.713
792.277	153.137
792.405	152.925
792.533	161.387
792.662	147.850
792.790	150.600
792.918	158.713
793.046	145.463
793.174	149.850
793.302	153.950
793.430	150.137
793.558	153.863
793.687	147.750
793.815	150.738
793.943	151.012
794.071	149.550
794.199	146.338
794.327	148.437
794.455	168.300
794.583	162.700
794.712	152.200
794.840	144.075
794.968	144.562
795.096	153.137
795.224	143.963
795.352	142.287
795.480	151.800
795.608	149.325
795.737	152.537
795.865	149.912
795.993	143.075
796.121	146.613
796.249	143.863
796.377	144.450
796.505	150.613
796.633	142.537
796.762	141.687
796.890	155.025
797.018	145.500
797.146	141.363
797.274	139.450
797.402	144.450
797.530	143.312
797.658	143.812
797.787	147.512
797.915	141.213
798.043	150.150
798.171	146.850
798.299	144.437
798.427	140.825
798.555	142.100
798.683	135.637
798.812	145.625
798.940	142.675
799.068	143.463
799.196	147.687
799.324	140.137
799.452	143.650
799.580	138.075
799.708	146.937
799.837	139.500
799.965	138.262
800.093	142.750
800.221	141.988
800.349	145.325
800.477	140.488
800.605	139.762
800.733	143.637
800.862	141.162
800.990	155.025
801.118	143.787
801.246	139.725
801.374	137.225
801.502	143.025
801.630	133.187
801.758	137.725
801.887	142.887
802.015	135.562
802.143	136.125
802.271	136.162
802.399	138.863
802.527	141.512
802.655	139.825
802.783	146.300
802.912	140.375
803.040	137.375
803.168	133.588
803.296	133.275
803.424	136.662
803.552	135.437
803.680	134.437
803.808	137.575
803.937	134.225
804.065	138.062
804.193	133.700
804.321	144.437
804.449	132.387
804.577	133.988
804.705	137.850
804.833	137.425
804.962	139.250
805.090	131.762
805.218	137.613
805.346	132.012
805.474	132.575
805.602	146.687
805.730	135.338
805.858	131.025
805.987	143.525
806.115	136.550
806.243	137.500
806.371	133.025
806.499	132.787
806.627	127.350
806.755	140.525
806.883	128.687
807.012	133.988
807.140	132.525
807.268	130.450
807.396	136.350
807.524	127.588
807.652	130.338
807.780	147.125
807.908	130.950
808.037	138.875
808.165	136.037
808.293	134.375
808.421	145.400
808.549	129.325
808.677	126.187
808.805	142.613
808.933	129.025
809.062	131.838
809.190	150.762
809.318	131.162
809.446	129.312
809.574	136.125
809.702	131.800
809.830	130.950
809.958	131.600
810.087	126.000
810.215	137.725
810.343	145.162
810.471	136.238
810.599	125.275
810.727	130.150
810.855	126.513
810.983	127.263
811.112	134.512
811.240	130.550
811.368	132.425
811.496	138.225
811.624	129.300
811.752	126.675
811.880	126.437
812.008	120.862
812.137	128.200
812.265	126.275
812.393	129.375
812.521	132.275
812.649	129.200
812.777	125.662
812.905	132.463
813.033	125.700
813.162	126.362
813.290	123.950
813.418	129.025
813.546	130.838
813.674	124.625
813.802	129.350
813.930	123.662
814.058	122.800
814.187	125.000
814.315	127.825
814.443	126.650
814.571	123.300
814.699	133.088
814.827	125.525
814.955	130.187
815.083	127.862
815.212	127.037
815.340	127.062
815.468	121.763
815.596	126.200
815.724	127.825
815.852	128.200
815.980	122.950
816.108	125.437
816.237	124.800
816.365	128.275
816.493	129.437
816.621	121.750
816.749	121.675
816.877	125.900
817.005	127.525
817.133	122.562
817.262	123.450
817.390	130.488
817.518	119.987
817.646	124.625
817.774	124.888
817.902	127.588
818.030	123.400
818.158	126.225
818.287	125.562
818.415	117.362
818.543	121.025
818.671	130.012
818.799	121.375
818.927	123.888
819.055	121.275
819.183	119.838
819.312	123.475
819.440	129.812
819.568	123.037
819.696	129.363
819.824	123.875
819.952	118.750
820.080	123.675
820.208	119.362
820.337	120.838
820.465	124.812
820.593	119.900
820.721	121.037
820.849	119.088
820.977	117.550
821.105	116.437
821.233	115.737
821.362	130.412
821.490	120.500
821.618	121.225
821.746	121.013
821.874	116.687
822.002	120.175
822.130	122.388
822.258	117.775
822.387	121.187
822.515	122.275
822.643	118.838
822.771	120.037
822.899	120.800
823.027	119.175
823.155	117.513
823.283	119.925
823.412	122.450
823.540	118.300
823.668	138.113
823.796	114.838
823.924	121.812
824.052	120.425
824.180	116.575
824.308	122.100
824.437	122.150
824.565	115.838
824.693	118.175
824.821	118.612
824.949	119.100
825.077	120.187
825.205	122.812
825.333	119.237
825.462	120.100
825.590	114.088
825.718	121.300
825.846	115.937
825.974	117.950
826.102	120.737
826.230	120.825
826.358	123.150
826.487	114.412
826.615	116.600
826.743	115.362
826.871	121.275
826.999	120.687
827.127	120.112
827.255	118.513
827.383	112.037
827.512	123.312
827.640	120.750
827.768	113.362
827.896	117.350
828.024	116.075
828.152	116.425
828.280	111.875
828.408	116.000
828.537	116.700
828.665	116.850
828.793	116.513
828.921	112.975
829.049	114.450
829.177	114.987
829.305	113.900
829.433	115.150
829.562	115.675
829.690	116.375
829.818	115.275
829.946	117.475
830.074	111.312
830.202	119.237
830.330	120.187
830.458	122.338
830.587	115.225
830.715	112.838
830.843	115.075
830.971	114.550
831.099	115.500
831.227	113.687
831.355	113.138
831.483	114.687
831.612	114.450
831.740	116.662
831.868	123.537
831.996	114.100
832.124	117.537
832.252	109.763
832.380	115.275
832.508	115.175
832.637	116.700
832.765	115.150
832.893	120.225
833.021	117.162
833.149	114.750
833.277	113.175
833.405	113.287
833.533	112.825
833.662	114.400
833.790	115.763
833.918	117.162
834.046	120.275
834.174	120.013
834.302	114.062
834.430	111.812
834.558	111.925
834.687	113.475
834.815	112.612
834.943	111.237
835.071	111.875
835.199	112.375
835.327	118.075
835.455	109.787
835.583	123.513
835.712	111.325
835.840	112.600
835.968	113.638
836.096	113.800
836.224	117.162
836.352	112.225
836.480	115.850
836.608	118.862
836.737	111.763
836.865	112.937
836.993	113.750
837.121	111.700
837.249	113.075
837.377	116.525
837.505	114.300
837.633	112.088
837.762	110.075
837.890	117.600
838.018	119.237
838.146	115.062
838.274	116.325
838.402	119.513
838.530	112.687
838.658	108.213
838.787	114.388
838.915	112.975
839.043	113.750
839.171	120.375
839.299	119.325
839.427	116.000
839.555	124.575
839.683	116.338
839.812	108.437
839.940	110.650
840.068	112.112
840.196	111.963
840.324	115.037
840.452	115.550
840.580	116.950
840.708	112.600
840.837	116.250
840.965	111.687
841.093	115.700
841.221	114.825
841.349	117.687
841.477	111.150
841.605	111.750
841.733	110.862
841.862	111.838
841.990	115.475
842.118	111.375
842.246	110.550
842.374	107.675
842.502	110.937
842.630	109.588
842.758	115.463
842.887	112.638
843.015	111.975
843.143	113.300
843.271	113.725
843.399	116.800
843.527	109.725
843.655	109.700
843.783	110.200
843.912	109.013
844.040	114.550
844.168	120.025
844.296	112.987
844.424	112.475
844.552	113.412
844.680	113.300
844.808	115.900
844.937	111.312
845.065	110.162
845.193	114.400
845.321	111.300
845.449	110.888
845.577	109.537
845.705	110.450
845.833	111.362
845.962	111.225
846.090	109.388
846.218	110.875
846.346	111.112
846.474	109.412
846.602	107.300
846.730	109.713
846.858	109.237
846.987	109.513
847.115	111.763
847.243	112.638
847.371	114.075
847.499	114.437
847.627	109.687
847.755	109.750
847.883	111.713
848.012	114.450
848.140	115.612
848.268	112.775
848.396	110.250
848.524	107.562
848.652	108.375
848.780	108.275
848.908	115.050
849.037	112.787
849.165	111.687
849.293	110.713
849.421	117.713
849.549	108.625
849.677	111.250
849.805	116.200
849.933	116.875
850.062	109.050
850.190	109.400
850.318	115.275
850.446	109.475
850.574	109.450
850.702	111.025
850.830	113.475
850.958	109.800
851.087	110.388
851.215	116.687
851.343	111.275
851.471	108.000
851.599	109.225
851.727	112.000
851.855	111.200
851.983	109.713
852.112	114.138
852.240	110.650
852.368	110.150
852.496	110.650
852.624	110.100
852.752	109.263
852.880	105.775
853.008	114.437
853.137	110.300
853.265	108.050
853.393	112.937
853.521	114.775
853.649	116.950
853.777	107.950
853.905	110.350
854.033	113.375
854.162	109.463
854.290	110.612
854.418	107.062
854.546	108.175
854.674	110.025
854.802	109.388
854.930	109.375
855.058	106.125
855.187	107.362
855.315	105.437
855.443	108.162
855.571	107.750
855.699	108.250
855.827	108.787
855.955	112.100
856.083	109.787
856.212	110.800
856.340	110.850
856.468	115.187
856.596	112.787
856.724	113.375
856.852	113.888
856.980	112.475
857.108	109.025
857.237	112.450
857.365	111.937
857.493	108.450
857.621	106.937
857.749	110.475
857.877	112.487
858.005	111.187
858.133	110.475
858.262	108.000
858.390	108.812
858.518	107.875
858.646	108.500
858.774	106.787
858.902	108.050
859.030	110.525
859.158	108.912
859.287	113.900
859.415	109.700
859.543	107.400
859.671	112.287
859.799	114.975
859.927	112.725
860.055	112.575
860.183	108.787
860.312	111.888
860.440	109.287
860.568	113.513
860.696	110.750
860.824	120.875
860.952	107.937
861.080	110.162
861.208	108.713
861.337	110.388
861.465	111.025
861.593	114.362
861.721	108.312
861.849	108.075
861.977	110.175
862.105	111.963
862.233	108.400
862.362	107.763
862.490	109.312
862.618	106.888
862.746	107.350
862.874	109.487
863.002	108.487
863.130	113.787
863.258	109.987
863.387	111.562
863.515	109.950
863.643	107.287
863.771	110.562
863.899	109.787
864.027	108.263
864.155	108.400
864.283	108.400
864.412	107.775
864.540	109.112
864.668	107.138
864.796	109.612
864.924	109.800
865.052	115.963
865.180	109.500
865.308	106.513
865.437	108.763
865.565	108.612
865.693	108.200
865.821	110.200
865.949	108.537
866.077	106.500
866.205	106.287
866.333	109.138
866.462	111.888
866.590	110.263
866.718	111.737
866.846	110.138
866.974	111.088
867.102	113.213
867.230	108.537
867.358	110.987
867.487	109.787
867.615	107.675
867.743	110.550
867.871	111.025
867.999	110.250
868.127	108.525
868.255	117.912
868.383	115.037
868.512	109.713
868.640	110.825
868.768	108.037
868.896	105.513
869.024	109.588
869.152	117.463
869.280	109.950
869.408	110.200
869.537	109.412
869.665	109.338
869.793	108.925
869.921	115.025
870.049	115.687
870.177	111.787
870.305	120.463
870.433	111.112
870.562	107.300
870.690	106.763
870.818	109.150
870.946	111.750
871.074	105.900
871.202	108.662
871.330	108.638
871.458	106.537
871.587	107.537
871.715	107.325
871.843	108.750
871.971	108.037
872.099	110.850
872.227	110.000
872.355	108.287
872.483	108.388
872.612	109.138
872.740	108.225
872.868	109.150
872.996	111.737
873.124	112.112
873.252	112.900
873.380	109.575
873.508	108.400
873.637	108.775
873.765	111.662
873.893	109.250
874.021	109.100
874.149	108.138
874.277	108.213
874.405	114.725
874.533	109.687
874.662	327.600
874.790	116.562
874.918	118.225
875.046	111.713
875.174	107.687
875.302	110.112
875.430	109.375
875.558	108.350
875.687	113.862
875.815	109.362
875.943	110.900
876.071	114.713
876.199	112.338
876.327	109.362
876.455	111.525
876.583	109.500
876.712	111.162
876.840	110.000
876.968	108.787
877.096	108.362
877.224	108.225
877.352	107.687
877.480	108.700
877.608	108.412
877.737	108.675
877.865	109.225
877.993	114.200
878.121	109.825
878.249	111.050
878.377	108.825
878.505	110.525
878.633	110.325
878.762	107.625
878.890	106.787
879.018	117.625
879.146	109.287
879.274	107.700
879.402	109.062
879.530	113.138
879.658	114.625
879.787	111.812
879.915	109.300
880.043	108.775
880.171	108.750
880.299	108.575
880.427	110.650
880.555	110.713
880.683	114.112
880.812	110.987
880.940	114.737
881.068	112.213
881.196	113.250
881.324	111.925
881.452	112.975
881.580	113.050
881.708	115.875
881.837	110.562
881.965	109.750
882.093	108.350
882.221	108.425
882.349	116.700
882.477	114.412
882.605	118.025
882.733	111.537
882.862	109.862
882.990	113.525
883.118	112.037
883.246	113.112
883.374	113.037
883.502	107.763
883.630	107.513
883.758	109.513
883.887	108.175
884.015	107.963
884.143	109.537
884.271	110.500
884.399	110.737
884.527	109.300
884.655	109.513
884.783	110.787
884.912	110.812
885.040	108.925
885.168	110.775
885.296	106.950
885.424	107.950
885.552	114.687
885.680	110.375
885.808	108.737
885.937	114.687
886.065	113.687
886.193	110.812
886.321	108.125
886.449	108.937
886.577	108.850
886.705	108.575
886.833	107.513
886.962	112.112
887.090	112.200
887.218	110.125
887.346	114.900
887.474	121.838
887.602	116.213
887.730	108.025
887.858	115.775
887.987	111.888
888.115	118.475
888.243	115.575
888.371	114.050
888.499	113.500
888.627	110.812
888.755	109.987
888.883	110.162
889.012	112.150
889.140	110.912
889.268	118.237
889.396	114.850
889.524	108.025
889.652	107.338
889.780	110.650
889.908	111.350
890.037	111.750
890.165	112.213
890.293	114.713
890.421	121.312
890.549	112.625
890.677	113.900
890.805	107.625
890.933	112.987
891.062	110.350
891.190	113.713
891.318	118.175
891.446	111.362
891.574	109.737
891.702	112.875
891.830	112.862
891.958	112.912
892.087	116.437
892.215	112.537
892.343	115.725
892.471	113.338
892.599	112.687
892.727	117.463
892.855	112.463
892.983	114.687
893.112	114.112
893.240	112.800
893.368	117.250
893.496	121.362
893.624	115.175
893.752	119.412
893.880	113.750
894.008	113.513
894.137	115.638
894.265	117.513
894.393	113.338
894.521	111.600
894.649	112.825
894.777	111.312
894.905	113.062
895.033	119.487
895.162	115.500
895.290	118.800
895.418	117.562
895.546	118.450
895.674	118.400
895.802	112.100
895.930	112.138
896.058	108.412
896.187	111.138
896.315	112.062
896.443	116.812
896.571	114.025
896.699	114.425
896.827	112.412
896.955	113.638
897.083	115.550
897.212	115.562
897.340	109.600
897.468	113.088
897.596	116.362
897.724	113.037
897.852	115.550
897.980	113.213
898.108	114.862
898.237	112.588
898.365	109.250
898.493	115.125
898.621	116.900
898.749	112.775
898.877	116.125
899.005	112.412
899.133	112.150
899.262	112.875
899.390	114.600
899.518	114.138
899.646	113.850
899.774	120.862
899.902	125.312
900.030	117.700
900.158	109.937
900.287	118.312
900.415	109.825
900.543	111.100
900.671	119.125
900.799	116.263
900.927	115.737
901.055	113.362
901.183	114.050
901.312	114.638
901.440	115.375
901.568	113.987
901.696	114.125
901.824	115.325
901.952	118.513
902.080	118.287
902.208	115.275
902.337	113.525
902.465	117.500
902.593	115.150
902.721	113.037
902.849	115.975
902.977	114.287
903.105	120.362
903.233	124.412
903.362	116.000
903.490	116.400
903.618	114.950
903.746	116.225
903.874	118.225
904.002	114.338
904.130	115.412
904.258	112.350
904.387	112.737
904.515	111.850
904.643	110.050
904.771	113.400
904.899	114.500
905.027	113.638
905.155	111.325
905.283	115.737
905.412	120.050
905.540	115.425
905.668	112.013
905.796	109.825
905.924	111.138
906.052	113.600
906.180	113.888
906.308	122.200
906.437	118.475
906.565	120.437
906.693	115.062
906.821	109.925
906.949	112.175
907.077	113.138
907.205	117.950
907.333	114.225
907.462	115.100
907.590	117.013
907.718	121.925
907.846	114.825
907.974	114.625
908.102	111.950
908.230	114.675
908.358	120.850
908.487	115.987
908.615	117.825
908.743	117.537
908.871	124.838
908.999	114.125
909.127	112.675
909.255	113.625
909.383	113.350
909.512	115.787
909.640	114.562
909.768	117.612
909.896	123.763
910.024	118.388
910.152	120.862
910.280	123.300
910.408	113.600
910.537	116.463
910.665	120.362
910.793	121.600
910.921	124.463
911.049	115.675
911.177	114.112
911.305	121.825
911.433	115.537
911.562	113.937
911.690	117.750
911.818	128.238
911.946	130.713
912.074	121.375
912.202	123.575
912.330	117.537
912.458	116.437
912.587	120.600
912.715	118.725
912.843	118.550
912.971	124.950
913.099	123.375
913.227	121.562
913.355	122.862
913.483	117.013
913.612	118.362
913.740	135.988
913.868	121.638
