Referenz_PP_at_750.00nm_cut_at_1008.00Y_01.dat
15.05.2023
12:36:52
cut middle at Y: 1008.00
top cursor: 1048 down cursor: 968 mean of: 80 lines , 2560 datapoints
wavelength(nm)	intensity[arb. units]
585.996	863.138
586.124	861.800
586.252	854.788
586.380	845.138
586.508	844.650
586.637	863.675
586.765	862.013
586.893	868.437
587.021	858.650
587.149	866.350
587.277	862.875
587.405	864.475
587.533	847.350
587.662	866.850
587.790	872.038
587.918	867.038
588.046	863.775
588.174	860.138
588.302	871.212
588.430	869.875
588.558	864.013
588.687	867.013
588.815	885.625
588.943	873.013
589.071	871.175
589.199	876.263
589.327	863.163
589.455	864.138
589.583	861.913
589.712	874.375
589.840	874.437
589.968	856.525
590.096	863.075
590.224	867.725
590.352	869.700
590.480	861.587
590.608	879.375
590.737	859.538
590.865	869.663
590.993	873.725
591.121	870.362
591.249	872.575
591.377	859.538
591.505	862.163
591.633	859.638
591.762	879.612
591.890	872.263
592.018	871.987
592.146	871.775
592.274	878.788
592.402	868.775
592.530	865.800
592.658	879.275
592.787	878.513
592.915	872.775
593.043	871.513
593.171	871.525
593.299	888.913
593.427	873.875
593.555	885.650
593.683	879.288
593.812	883.650
593.940	891.312
594.068	893.700
594.196	904.125
594.324	879.925
594.452	889.250
594.580	899.788
594.708	893.650
594.837	893.638
594.965	895.562
595.093	904.075
595.221	902.175
595.349	897.962
595.477	906.075
595.605	893.087
595.733	915.962
595.862	906.200
595.990	905.025
596.118	902.050
596.246	905.987
596.374	916.000
596.502	919.187
596.630	918.987
596.758	922.538
596.887	914.187
597.015	923.450
597.143	918.362
597.271	917.075
597.399	915.700
597.527	915.250
597.655	913.837
597.783	922.362
597.912	901.788
598.040	924.775
598.168	926.187
598.296	910.237
598.424	909.562
598.552	909.850
598.680	915.962
598.808	908.638
598.937	915.300
599.065	917.112
599.193	903.900
599.321	896.800
599.449	912.025
599.577	905.575
599.705	907.638
599.833	897.250
599.962	905.962
600.090	903.462
600.218	904.062
600.346	901.200
600.474	915.050
600.602	917.450
600.730	911.525
600.858	909.950
600.987	902.675
601.115	906.687
601.243	895.337
601.371	903.475
601.499	913.750
601.627	899.750
601.755	921.675
601.883	916.112
602.012	910.612
602.140	915.087
602.268	916.913
602.396	915.837
602.524	919.937
602.652	918.763
602.780	911.900
602.908	930.263
603.037	939.638
603.165	916.300
603.293	929.275
603.421	933.200
603.549	927.650
603.677	951.388
603.805	922.900
603.933	928.300
604.062	924.450
604.190	941.750
604.318	922.575
604.446	949.663
604.574	945.538
604.702	935.550
604.830	935.700
604.958	941.112
605.087	953.625
605.215	940.788
605.343	955.112
605.471	940.375
605.599	944.538
605.727	944.962
605.855	967.337
605.983	945.413
606.112	961.425
606.240	959.888
606.368	967.550
606.496	967.400
606.624	965.112
606.752	965.550
606.880	956.587
607.008	960.962
607.137	967.000
607.265	967.138
607.393	972.913
607.521	973.525
607.649	973.538
607.777	953.513
607.905	958.750
608.033	962.462
608.162	962.225
608.290	967.413
608.418	970.875
608.546	970.100
608.674	984.475
608.802	969.750
608.930	971.862
609.058	968.775
609.187	965.450
609.315	957.587
609.443	966.525
609.571	969.050
609.699	965.075
609.827	961.437
609.955	964.663
610.083	968.788
610.212	960.875
610.340	966.100
610.468	956.862
610.596	960.937
610.724	956.425
610.852	969.900
610.980	960.212
611.108	966.825
611.237	958.837
611.365	971.638
611.493	965.150
611.621	964.275
611.749	973.525
611.877	970.812
612.005	969.237
612.133	970.187
612.262	962.900
612.390	973.900
612.518	973.050
612.646	961.950
612.774	977.175
612.902	964.737
613.030	980.775
613.158	966.550
613.287	1002.275
613.415	980.125
613.543	971.038
613.671	967.013
613.799	992.700
613.927	969.413
614.055	970.575
614.183	981.200
614.312	983.100
614.440	981.850
614.568	981.538
614.696	996.375
614.824	986.275
614.952	987.712
615.080	992.300
615.208	993.875
615.337	982.562
615.465	998.538
615.593	997.837
615.721	1008.388
615.849	1006.675
615.977	1002.925
616.105	991.600
616.233	1003.600
616.362	998.450
616.490	1000.750
616.618	1006.038
616.746	995.362
616.874	1013.913
617.002	1014.400
617.130	1018.050
617.258	1017.425
617.387	1016.462
617.515	1008.600
617.643	1015.138
617.771	1011.138
617.899	1015.525
618.027	1012.050
618.155	1023.212
618.283	1009.737
618.412	1019.962
618.540	1012.462
618.668	1006.850
618.796	1011.725
618.924	1017.587
619.052	1009.100
619.180	1015.112
619.308	1018.362
619.437	1010.525
619.565	1016.075
619.693	1017.087
619.821	1009.450
619.949	1005.325
620.077	1005.500
620.205	1013.300
620.333	1012.950
620.462	1008.400
620.590	1014.513
620.718	1015.788
620.846	1014.937
620.974	1048.213
621.102	1007.650
621.230	1010.225
621.358	1030.650
621.487	1017.850
621.615	1014.687
621.743	1024.825
621.871	1015.013
621.999	1010.575
622.127	1019.475
622.255	1021.112
622.383	1002.562
622.512	1013.788
622.640	1012.538
622.768	1014.025
622.896	1008.562
623.024	1003.513
623.152	1012.712
623.280	997.487
623.408	1001.425
623.537	1015.800
623.665	1018.413
623.793	994.750
623.921	997.275
624.049	998.212
624.177	1014.550
624.305	1008.237
624.433	1008.462
624.562	1014.187
624.690	1000.350
624.818	1008.263
624.946	1007.500
625.074	1009.625
625.202	1013.750
625.330	1011.675
625.458	1012.075
625.587	1006.750
625.715	1009.425
625.843	1009.125
625.971	1020.000
626.099	1024.075
626.227	1017.487
626.355	1004.950
626.483	1008.800
626.612	994.612
626.740	997.825
626.868	1017.437
626.996	1002.375
627.124	1007.038
627.252	984.062
627.380	1009.275
627.508	997.913
627.637	999.538
627.765	1001.825
627.893	1022.775
628.021	1011.788
628.149	1027.388
628.277	1042.750
628.405	1024.400
628.533	1012.550
628.662	1007.675
628.790	1010.675
628.918	1012.237
629.046	1012.288
629.174	1002.487
629.302	1020.288
629.430	1024.112
629.558	1004.712
629.687	1023.500
629.815	1012.975
629.943	1013.975
630.071	1013.712
630.199	1017.550
630.327	1014.388
630.455	1008.337
630.583	1025.763
630.712	1025.025
630.840	1016.725
630.968	1030.900
631.096	1019.975
631.224	1022.862
631.352	1026.187
631.480	1023.362
631.608	1023.612
631.737	1032.987
631.865	1027.662
631.993	1018.638
632.121	1029.312
632.249	1026.525
632.377	1045.475
632.505	1029.062
632.633	1023.288
632.762	1026.612
632.890	1028.650
633.018	1033.888
633.146	1032.525
633.274	1027.562
633.402	1015.700
633.530	1018.425
633.658	1032.537
633.787	1016.400
633.915	1038.362
634.043	1011.687
634.171	1036.287
634.299	1035.375
634.427	1021.575
634.555	1023.800
634.683	1026.175
634.812	1018.413
634.940	1021.487
635.068	1018.362
635.196	1008.013
635.324	1022.638
635.452	1025.100
635.580	1015.987
635.708	1010.575
635.837	1002.737
635.965	1012.812
636.093	1009.150
636.221	1007.850
636.349	1004.650
636.477	1009.225
636.605	1014.200
636.733	998.425
636.862	1006.513
636.990	978.513
637.118	997.513
637.246	998.138
637.374	986.300
637.502	983.525
637.630	997.450
637.758	989.175
637.887	1001.263
638.015	983.250
638.143	992.675
638.271	989.487
638.399	981.962
638.527	971.900
638.655	986.200
638.783	991.913
638.912	969.462
639.040	963.987
639.168	978.913
639.296	979.675
639.424	980.513
639.552	980.875
639.680	998.837
639.808	981.350
639.937	969.250
640.065	973.837
640.193	980.888
640.321	952.200
640.449	973.763
640.577	973.812
640.705	950.800
640.833	968.937
640.962	964.612
641.090	964.687
641.218	974.900
641.346	962.400
641.474	955.913
641.602	948.212
641.730	965.500
641.858	973.837
641.987	959.325
642.115	964.850
642.243	973.275
642.371	976.225
642.499	958.212
642.627	958.788
642.755	958.850
642.883	961.050
643.012	968.712
643.140	963.975
643.268	953.600
643.396	982.275
643.524	961.538
643.652	958.050
643.780	960.562
643.908	968.187
644.037	960.875
644.165	954.200
644.293	958.712
644.421	952.087
644.549	957.750
644.677	961.600
644.805	961.538
644.933	948.900
645.062	963.275
645.190	944.362
645.318	938.913
645.446	967.675
645.574	964.288
645.702	943.288
645.830	965.575
645.958	961.538
646.087	947.888
646.215	952.612
646.343	954.112
646.471	950.187
646.599	964.275
646.727	947.200
646.855	954.312
646.983	961.675
647.112	956.538
647.240	954.100
647.368	940.950
647.496	945.875
647.624	943.187
647.752	947.075
647.880	952.650
648.008	950.825
648.137	936.087
648.265	945.312
648.393	932.825
648.521	948.038
648.649	934.350
648.777	925.362
648.905	939.562
649.033	923.250
649.162	925.763
649.290	939.587
649.418	918.237
649.546	928.775
649.674	925.000
649.802	915.300
649.930	923.750
650.058	915.675
650.187	927.388
650.315	911.737
650.443	919.850
650.571	914.638
650.699	919.737
650.827	915.163
650.955	908.937
651.083	911.550
651.212	909.112
651.340	905.325
651.468	911.575
651.596	897.850
651.724	907.837
651.852	898.337
651.980	896.325
652.108	896.350
652.237	876.900
652.365	890.925
652.493	892.562
652.621	889.663
652.749	888.862
652.877	885.987
653.005	881.475
653.133	896.962
653.262	883.812
653.390	887.663
653.518	887.600
653.646	881.712
653.774	881.300
653.902	881.763
654.030	875.138
654.158	869.350
654.287	884.425
654.415	875.038
654.543	872.000
654.671	870.925
654.799	868.550
654.927	875.187
655.055	855.175
655.183	857.225
655.312	849.663
655.440	863.263
655.568	858.312
655.696	859.663
655.824	855.675
655.952	852.788
656.080	845.900
656.208	863.337
656.337	845.375
656.465	851.763
656.593	851.000
656.721	849.513
656.849	848.687
656.977	838.638
657.105	841.712
657.233	839.812
657.362	843.062
657.490	832.812
657.618	838.975
657.746	837.913
657.874	816.275
658.002	838.325
658.130	827.663
658.258	826.538
658.387	845.650
658.515	826.200
658.643	830.450
658.771	820.138
658.899	829.163
659.027	825.013
659.155	830.888
659.283	811.400
659.412	815.900
659.540	809.175
659.668	824.962
659.796	810.450
659.924	834.612
660.052	818.763
660.180	815.825
660.308	818.275
660.437	804.587
660.565	815.400
660.693	806.288
660.821	807.550
660.949	807.413
661.077	796.638
661.205	804.250
661.333	791.250
661.462	811.600
661.590	819.187
661.718	800.888
661.846	797.788
661.974	807.575
662.102	794.500
662.230	801.337
662.358	792.500
662.487	793.375
662.615	781.700
662.743	796.837
662.871	794.300
662.999	788.825
663.127	782.625
663.255	798.700
663.383	795.150
663.512	784.687
663.640	795.288
663.768	776.650
663.896	795.712
664.024	778.687
664.152	781.812
664.280	786.263
664.408	771.500
664.537	788.587
664.665	783.775
664.793	768.362
664.921	771.587
665.049	772.875
665.177	794.937
665.305	772.987
665.433	764.900
665.562	764.250
665.690	772.550
665.818	776.263
665.946	765.225
666.074	764.400
666.202	763.725
666.330	763.163
666.458	761.875
666.587	761.862
666.715	761.800
666.843	767.237
666.971	757.575
667.099	754.712
667.227	763.150
667.355	752.600
667.483	753.112
667.612	756.987
667.740	761.112
667.868	754.725
667.996	759.362
668.124	743.825
668.252	756.575
668.380	742.763
668.508	749.975
668.637	741.375
668.765	751.200
668.893	748.225
669.021	740.075
669.149	735.000
669.277	740.000
669.405	740.763
669.533	751.812
669.662	736.675
669.790	731.038
669.918	733.837
670.046	734.475
670.174	732.937
670.302	730.200
670.430	720.487
670.558	727.587
670.687	725.875
670.815	727.638
670.943	728.450
671.071	719.513
671.199	728.212
671.327	727.562
671.455	719.900
671.583	720.413
671.712	713.462
671.840	721.038
671.968	711.725
672.096	711.800
672.224	710.800
672.352	706.375
672.480	709.888
672.608	705.550
672.737	703.675
672.865	701.888
672.993	708.538
673.121	704.600
673.249	697.712
673.377	700.487
673.505	703.837
673.633	694.675
673.762	695.100
673.890	695.487
674.018	692.038
674.146	692.737
674.274	692.825
674.402	688.175
674.530	688.750
674.658	683.450
674.787	676.913
674.915	676.362
675.043	686.538
675.171	676.400
675.299	672.663
675.427	673.250
675.555	673.712
675.683	674.437
675.812	666.712
675.940	685.187
676.068	684.087
676.196	668.850
676.324	668.587
676.452	663.388
676.580	657.350
676.708	659.737
676.837	665.150
676.965	654.650
677.093	663.275
677.221	652.025
677.349	637.487
677.477	648.788
677.605	643.775
677.733	656.888
677.862	639.275
677.990	647.962
678.118	645.712
678.246	632.675
678.374	633.075
678.502	636.987
678.630	637.425
678.758	633.112
678.887	628.900
679.015	630.737
679.143	621.112
679.271	626.513
679.399	639.050
679.527	622.750
679.655	621.525
679.783	620.725
679.912	628.925
680.040	622.125
680.168	617.975
680.296	619.225
680.424	614.750
680.552	620.687
680.680	615.950
680.808	604.500
680.937	607.362
681.065	617.212
681.193	606.800
681.321	619.962
681.449	603.175
681.577	614.013
681.705	598.550
681.833	592.362
681.962	597.962
682.090	604.687
682.218	593.638
682.346	592.612
682.474	596.550
682.602	598.200
682.730	602.950
682.858	596.075
682.987	592.025
683.115	590.413
683.243	590.125
683.371	592.350
683.499	587.187
683.627	596.862
683.755	585.862
683.883	584.175
684.012	577.625
684.140	574.288
684.268	586.175
684.396	579.987
684.524	574.888
684.652	580.812
684.780	582.312
684.908	575.612
685.037	580.775
685.165	575.575
685.293	577.487
685.421	576.975
685.549	571.425
685.677	577.600
685.805	562.675
685.933	563.187
686.062	561.437
686.190	567.750
686.318	555.225
686.446	565.850
686.574	563.587
686.702	562.788
686.830	565.413
686.958	555.862
687.087	561.875
687.215	554.937
687.343	555.000
687.471	552.237
687.599	547.225
687.727	549.763
687.855	554.600
687.983	550.687
688.112	546.650
688.240	546.837
688.368	546.712
688.496	545.138
688.624	549.950
688.752	538.550
688.880	541.862
689.008	535.725
689.137	541.200
689.265	535.625
689.393	533.763
689.521	531.950
689.649	537.788
689.777	534.663
689.905	531.612
690.033	539.663
690.162	529.850
690.290	530.062
690.418	521.825
690.546	545.500
690.674	531.275
690.802	521.187
690.930	522.638
691.058	521.737
691.187	515.550
691.315	519.050
691.443	516.350
691.571	518.888
691.699	508.087
691.827	512.712
691.955	521.038
692.083	511.913
692.212	503.600
692.340	527.425
692.468	518.625
692.596	509.887
692.724	506.950
692.852	511.437
692.980	512.112
693.108	498.437
693.237	501.050
693.365	501.163
693.493	495.250
693.621	498.663
693.749	500.025
693.877	500.788
694.005	495.012
694.133	501.012
694.262	499.650
694.390	497.062
694.518	484.125
694.646	493.425
694.774	484.225
694.902	487.700
695.030	498.962
695.158	476.562
695.287	482.550
695.415	482.100
695.543	485.875
695.671	479.738
695.799	482.325
695.927	480.050
696.055	469.450
696.183	475.350
696.312	481.837
696.440	471.562
696.568	469.575
696.696	473.925
696.824	472.900
696.952	464.137
697.080	471.200
697.208	475.587
697.337	467.875
697.465	463.800
697.593	458.613
697.721	460.150
697.849	456.812
697.977	450.200
698.105	458.462
698.233	458.925
698.362	455.175
698.490	448.637
698.618	458.012
698.746	453.212
698.874	456.812
699.002	459.975
699.130	449.413
699.258	446.200
699.387	442.712
699.515	440.113
699.643	446.700
699.771	448.337
699.899	443.850
700.027	440.575
700.155	440.600
700.283	440.613
700.412	444.100
700.540	442.137
700.668	431.113
700.796	441.163
700.924	432.738
701.052	433.913
701.180	434.300
701.308	431.538
701.437	426.100
701.565	436.437
701.693	429.825
701.821	440.425
701.949	444.950
702.077	419.650
702.205	428.962
702.333	425.825
702.462	423.113
702.590	419.350
702.718	418.788
702.846	413.562
702.974	425.475
703.102	423.788
703.230	426.850
703.358	411.212
703.487	414.075
703.615	420.613
703.743	404.262
703.871	416.875
703.999	401.250
704.127	413.150
704.255	401.600
704.383	407.887
704.512	402.800
704.640	402.137
704.768	399.850
704.896	397.275
705.024	398.712
705.152	403.512
705.280	393.012
705.408	409.288
705.537	397.300
705.665	393.812
705.793	390.850
705.921	389.937
706.049	396.437
706.177	392.175
706.305	389.025
706.433	386.812
706.562	383.775
706.690	385.837
706.818	386.400
706.946	382.637
707.074	377.475
707.202	382.687
707.330	386.950
707.458	389.387
707.587	377.062
707.715	379.937
707.843	372.062
707.971	376.925
708.099	374.538
708.227	369.525
708.355	370.262
708.483	369.163
708.612	372.113
708.740	375.363
708.868	365.187
708.996	364.462
709.124	379.475
709.252	371.850
709.380	364.462
709.508	355.637
709.637	361.125
709.765	365.150
709.893	364.675
710.021	365.400
710.149	352.850
710.277	364.125
710.405	356.750
710.533	353.012
710.662	355.825
710.790	354.137
710.918	353.750
711.046	358.700
711.174	354.375
711.302	352.100
711.430	353.575
711.558	349.937
711.687	343.375
711.815	344.125
711.943	358.600
712.071	351.700
712.199	344.187
712.327	348.275
712.455	343.137
712.583	343.738
712.712	361.950
712.840	342.950
712.968	340.137
713.096	345.325
713.224	338.475
713.352	332.163
713.480	329.325
713.608	332.387
713.737	333.250
713.865	337.863
713.993	333.375
714.121	327.613
714.249	336.975
714.377	330.413
714.505	332.288
714.633	326.975
714.762	320.837
714.890	336.675
715.018	336.425
715.146	327.262
715.274	325.837
715.402	321.038
715.530	323.350
715.658	325.012
715.787	324.525
715.915	320.187
716.043	323.462
716.171	329.663
716.299	334.163
716.427	320.288
716.555	322.975
716.683	323.762
716.812	320.788
716.940	318.937
717.068	315.712
717.196	316.937
717.324	318.675
717.452	309.913
717.580	307.238
717.708	313.812
717.837	319.113
717.965	317.275
718.093	310.437
718.221	307.325
718.349	304.587
718.477	307.637
718.605	302.712
718.733	307.562
718.862	304.187
718.990	303.087
719.118	308.425
719.246	303.212
719.374	298.625
719.502	310.525
719.630	314.738
719.758	300.925
719.887	297.975
720.015	303.163
720.143	296.738
720.271	304.775
720.399	302.113
720.527	305.538
720.655	292.825
720.783	299.400
720.912	305.625
721.040	309.387
721.168	298.187
721.296	296.075
721.424	294.663
721.552	287.025
721.680	284.525
721.808	295.113
721.937	292.550
722.065	286.863
722.193	290.312
722.321	285.012
722.449	284.475
722.577	287.137
722.705	287.738
722.833	283.587
722.962	289.900
723.090	278.700
723.218	282.725
723.346	281.887
723.474	288.875
723.602	289.175
723.730	284.250
723.858	279.363
723.987	285.337
724.115	279.275
724.243	277.913
724.371	277.187
724.499	286.863
724.627	277.312
724.755	278.375
724.883	280.613
725.012	271.650
725.140	276.413
725.268	279.113
725.396	275.038
725.524	263.950
725.652	273.288
725.780	272.025
725.908	274.587
726.037	267.100
726.165	271.962
726.293	266.500
726.421	264.363
726.549	273.187
726.677	268.225
726.805	267.387
726.933	266.087
727.062	257.925
727.190	264.125
727.318	265.550
727.446	260.687
727.574	263.512
727.702	265.475
727.830	257.512
727.958	267.250
728.087	260.150
728.215	260.837
728.343	257.113
728.471	262.262
728.599	256.988
728.727	257.788
728.855	259.312
728.983	256.400
729.112	252.175
729.240	257.250
729.368	257.687
729.496	258.100
729.624	256.762
729.752	248.562
729.880	254.713
730.008	252.600
730.137	248.613
730.265	253.275
730.393	254.650
730.521	247.713
730.649	258.312
730.777	250.988
730.905	249.912
731.033	248.363
731.162	249.963
731.290	252.400
731.418	246.825
731.546	270.913
731.674	248.025
731.802	244.512
731.930	246.125
732.058	243.738
732.187	244.375
732.315	241.550
732.443	246.850
732.571	242.088
732.699	240.250
732.827	240.000
732.955	237.512
733.083	234.488
733.212	235.825
733.340	235.588
733.468	239.012
733.596	235.300
733.724	232.637
733.852	235.488
733.980	235.150
734.108	238.375
734.237	239.613
734.365	227.800
734.493	241.613
734.621	227.887
734.749	232.463
734.877	235.575
735.005	226.937
735.133	233.762
735.262	229.963
735.390	229.475
735.518	231.012
735.646	225.463
735.774	226.887
735.902	230.975
736.030	226.162
736.158	237.062
736.287	226.562
736.415	227.925
736.543	226.825
736.671	228.887
736.799	221.050
736.927	231.363
737.055	226.375
737.183	221.325
737.312	223.850
737.440	233.963
737.568	238.500
737.696	222.450
737.824	221.750
737.952	237.912
738.080	223.012
738.208	226.738
738.337	220.812
738.465	227.325
738.593	218.062
738.721	213.512
738.849	219.287
738.977	223.100
739.105	215.875
739.233	217.613
739.362	215.075
739.490	211.937
739.618	215.375
739.746	214.225
739.874	224.400
740.002	217.662
740.130	214.738
740.258	221.437
740.387	213.812
740.515	204.625
740.643	218.250
740.771	224.700
740.899	214.000
741.027	214.588
741.155	215.675
741.283	208.088
741.412	208.687
741.540	206.200
741.668	210.887
741.796	209.863
741.924	212.037
742.052	209.825
742.180	205.325
742.308	205.425
742.437	208.588
742.565	214.912
742.693	209.825
742.821	207.525
742.949	203.150
743.077	207.838
743.205	207.262
743.333	211.625
743.462	216.312
743.590	202.662
743.718	199.863
743.846	207.575
743.974	202.825
744.102	199.363
744.230	201.437
744.358	199.100
744.487	215.262
744.615	199.550
744.743	207.225
744.871	193.325
744.999	213.838
745.127	201.050
745.255	195.900
745.383	201.600
745.512	198.838
745.640	192.287
745.768	200.787
745.896	201.475
746.024	195.863
746.152	190.637
746.280	200.137
746.408	201.900
746.537	202.338
746.665	204.350
746.793	198.275
746.921	190.863
747.049	196.437
747.177	200.512
747.305	193.100
747.433	198.213
747.562	190.225
747.690	188.762
747.818	192.300
747.946	195.700
748.074	208.125
748.202	192.912
748.330	185.925
748.458	193.675
748.587	194.250
748.715	186.925
748.843	193.812
748.971	188.613
749.099	188.725
749.227	194.412
749.355	182.850
749.483	186.637
749.612	188.088
749.740	188.187
749.868	186.912
749.996	186.062
750.124	186.950
750.252	189.488
750.380	187.713
750.508	185.137
750.637	183.537
750.765	187.350
750.893	178.525
751.021	183.275
751.149	184.662
751.277	188.287
751.405	190.662
751.533	191.588
751.662	185.625
751.790	195.100
751.918	192.600
752.046	179.762
752.174	178.825
752.302	191.275
752.430	186.500
752.558	181.437
752.687	185.387
752.815	188.950
752.943	185.200
753.071	175.200
753.199	179.900
753.327	188.437
753.455	178.275
753.583	175.050
753.712	178.200
753.840	179.125
753.968	177.887
754.096	174.062
754.224	174.775
754.352	170.787
754.480	174.625
754.608	176.275
754.737	174.475
754.865	177.175
754.993	180.562
755.121	171.475
755.249	180.425
755.377	172.312
755.505	170.062
755.633	189.162
755.762	170.450
755.890	183.450
756.018	175.738
756.146	172.363
756.274	176.863
756.402	166.000
756.530	171.325
756.658	181.912
756.787	167.687
756.915	163.500
757.043	173.488
757.171	174.637
757.299	171.450
757.427	167.338
757.555	173.525
757.683	176.175
757.812	169.312
757.940	173.550
758.068	166.000
758.196	166.575
758.324	168.625
758.452	164.012
758.580	166.687
758.708	169.200
758.837	165.662
758.965	177.400
759.093	169.312
759.221	161.925
759.349	167.100
759.477	159.937
759.605	158.425
759.733	165.825
759.862	168.400
759.990	164.012
760.118	167.775
760.246	161.150
760.374	169.037
760.502	168.238
760.630	159.738
760.758	158.400
760.887	156.475
761.015	159.325
761.143	163.150
761.271	158.400
761.399	158.088
761.527	163.262
761.655	154.875
761.783	162.037
761.912	155.838
762.040	160.625
762.168	165.488
762.296	159.725
762.424	153.100
762.552	158.800
762.680	162.738
762.808	157.062
762.937	163.213
763.065	156.312
763.193	161.137
763.321	155.713
763.449	152.887
763.577	155.687
763.705	161.075
763.833	178.650
763.962	152.912
764.090	155.238
764.218	156.937
764.346	153.650
764.474	150.088
764.602	157.325
764.730	154.238
764.858	156.787
764.987	155.425
765.115	166.975
765.243	160.850
765.371	151.537
765.499	150.800
765.627	150.613
765.755	150.675
765.883	150.062
766.012	155.488
766.140	144.812
766.268	150.350
766.396	151.300
766.524	146.750
766.652	149.175
766.780	146.875
766.908	154.613
767.037	148.675
767.165	147.887
767.293	158.113
767.421	151.963
767.549	149.012
767.677	153.588
767.805	149.250
767.933	149.625
768.062	149.713
768.190	146.162
768.318	147.613
768.446	159.787
768.574	153.387
768.702	155.100
768.830	145.125
768.958	146.775
769.087	148.037
769.215	148.875
769.343	147.488
769.471	150.137
769.599	150.850
769.727	147.350
769.855	144.225
769.983	145.287
770.112	145.787
770.240	148.937
770.368	142.575
770.496	143.338
770.624	141.750
770.752	148.287
770.880	157.450
771.008	142.287
771.137	146.662
771.265	148.075
771.393	147.488
771.521	148.187
771.649	144.412
771.777	142.012
771.905	148.100
772.033	142.887
772.162	146.588
772.290	145.287
772.418	151.113
772.546	143.550
772.674	142.375
772.802	149.062
772.930	147.463
773.058	140.412
773.187	143.775
773.315	146.925
773.443	144.975
773.571	140.050
773.699	139.675
773.827	137.963
773.955	145.887
774.083	155.125
774.212	141.175
774.340	144.150
774.468	143.475
774.596	140.325
774.724	147.762
774.852	133.937
774.980	141.300
775.108	139.437
775.237	138.762
775.365	139.363
775.493	137.575
775.621	141.975
775.749	141.325
775.877	142.012
776.005	140.475
776.133	143.562
776.262	142.175
776.390	135.537
776.518	149.937
776.646	135.800
776.774	135.625
776.902	141.312
777.030	141.600
777.158	142.225
777.287	137.613
777.415	138.262
777.543	135.550
777.671	134.463
777.799	133.812
777.927	140.325
778.055	142.238
778.183	143.050
778.312	131.250
778.440	133.512
778.568	137.625
778.696	136.150
778.824	140.400
778.952	136.238
779.080	138.675
779.208	140.675
779.337	139.463
779.465	140.213
779.593	137.675
779.721	142.775
779.849	136.375
779.977	136.412
780.105	135.375
780.233	140.075
780.362	141.588
780.490	136.162
780.618	135.925
780.746	135.075
780.874	135.275
781.002	133.312
781.130	134.400
781.258	132.738
781.387	140.887
781.515	137.100
781.643	134.575
781.771	142.037
781.899	135.738
782.027	133.350
782.155	133.025
782.283	133.463
782.412	136.500
782.540	136.512
782.668	136.200
782.796	131.062
782.924	132.687
783.052	128.838
783.180	138.562
783.308	128.287
783.437	134.600
783.565	137.250
783.693	133.287
783.821	137.437
783.949	133.500
784.077	135.037
784.205	135.988
784.333	146.488
784.462	130.287
784.590	133.700
784.718	132.937
784.846	127.612
784.974	135.363
785.102	143.137
785.230	133.500
785.358	139.375
785.487	133.988
785.615	133.537
785.743	130.537
785.871	127.763
785.999	133.463
786.127	125.825
786.255	138.887
786.383	140.187
786.512	132.963
786.640	131.025
786.768	137.238
786.896	132.375
787.024	133.863
787.152	129.713
787.280	129.312
787.408	129.912
787.537	130.537
787.665	131.287
787.793	132.088
787.921	131.525
788.049	126.612
788.177	127.888
788.305	127.912
788.433	134.162
788.562	123.963
788.690	127.950
788.818	128.800
788.946	126.650
789.074	128.387
789.202	129.387
789.330	128.225
789.458	124.937
789.587	128.137
789.715	131.550
789.843	131.600
789.971	127.425
790.099	125.925
790.227	125.537
790.355	128.450
790.483	133.950
790.612	129.437
790.740	129.662
790.868	136.637
790.996	129.412
791.124	128.863
791.252	129.262
791.380	133.650
791.508	128.900
791.637	137.588
791.765	122.638
791.893	122.537
792.021	131.437
792.149	126.463
792.277	127.237
792.405	128.738
792.533	133.812
792.662	123.525
792.790	128.075
792.918	130.975
793.046	122.987
793.174	128.437
793.302	128.300
793.430	126.150
793.558	132.687
793.687	121.862
793.815	130.075
793.943	128.512
794.071	126.725
794.199	124.025
794.327	122.100
794.455	145.187
794.583	138.412
794.712	130.687
794.840	123.187
794.968	123.475
795.096	132.912
795.224	122.912
795.352	121.625
795.480	126.550
795.608	127.638
795.737	131.387
795.865	127.537
795.993	122.500
796.121	124.400
796.249	129.062
796.377	125.237
796.505	130.550
796.633	123.175
796.762	122.725
796.890	128.338
797.018	126.825
797.146	124.263
797.274	119.838
797.402	123.500
797.530	125.000
797.658	123.500
797.787	129.312
797.915	124.650
798.043	131.000
798.171	129.450
798.299	123.013
798.427	124.537
798.555	121.325
798.683	120.150
798.812	125.562
798.940	126.463
799.068	126.000
799.196	129.175
799.324	120.713
799.452	130.025
799.580	123.775
799.708	130.187
799.837	119.287
799.965	118.900
800.093	122.388
800.221	125.100
800.349	122.725
800.477	123.775
800.605	124.625
800.733	128.437
800.862	123.675
800.990	139.037
801.118	129.100
801.246	118.062
801.374	121.388
801.502	125.325
801.630	118.775
801.758	119.487
801.887	126.162
802.015	119.475
802.143	121.100
802.271	122.662
802.399	127.037
802.527	126.162
802.655	125.013
802.783	127.312
802.912	125.275
803.040	124.437
803.168	118.025
803.296	115.625
803.424	116.162
803.552	121.062
803.680	118.963
803.808	123.312
803.937	118.600
804.065	120.925
804.193	118.888
804.321	130.925
804.449	116.925
804.577	117.350
804.705	118.037
804.833	116.812
804.962	117.025
805.090	116.550
805.218	124.200
805.346	117.237
805.474	119.787
805.602	131.062
805.730	123.500
805.858	118.225
805.987	126.125
806.115	123.050
806.243	120.150
806.371	116.100
806.499	112.787
806.627	114.700
806.755	121.225
806.883	117.450
807.012	119.013
807.140	120.562
807.268	117.037
807.396	119.812
807.524	113.362
807.652	117.338
807.780	127.350
807.908	119.037
808.037	124.612
808.165	122.487
808.293	119.338
808.421	126.987
808.549	116.825
808.677	116.950
808.805	126.450
808.933	116.713
809.062	118.100
809.190	138.512
809.318	119.612
809.446	117.213
809.574	114.900
809.702	117.275
809.830	116.588
809.958	124.437
810.087	118.800
810.215	126.937
810.343	131.412
810.471	120.662
810.599	116.750
810.727	116.100
810.855	113.412
810.983	116.362
811.112	118.325
811.240	115.950
811.368	121.700
811.496	125.175
811.624	118.400
811.752	114.287
811.880	113.650
812.008	113.425
812.137	118.312
812.265	114.800
812.393	118.937
812.521	120.437
812.649	118.937
812.777	115.475
812.905	116.725
813.033	115.513
813.162	112.963
813.290	113.475
813.418	115.250
813.546	113.100
813.674	114.000
813.802	121.150
813.930	114.888
814.058	112.525
814.187	115.013
814.315	119.225
814.443	115.312
814.571	110.763
814.699	118.925
814.827	113.537
814.955	117.975
815.083	117.037
815.212	117.575
815.340	116.775
815.468	112.575
815.596	112.075
815.724	111.662
815.852	111.888
815.980	111.200
816.108	113.487
816.237	118.088
816.365	115.737
816.493	117.588
816.621	112.125
816.749	113.600
816.877	115.700
817.005	117.000
817.133	113.950
817.262	110.588
817.390	121.187
817.518	113.550
817.646	115.975
817.774	115.412
817.902	118.987
818.030	112.725
818.158	119.588
818.287	113.500
818.415	110.750
818.543	111.700
818.671	117.287
818.799	112.325
818.927	116.775
819.055	113.225
819.183	108.612
819.312	111.500
819.440	119.050
819.568	113.213
819.696	121.150
819.824	115.825
819.952	114.125
820.080	114.787
820.208	114.513
820.337	111.037
820.465	116.275
820.593	110.287
820.721	110.263
820.849	113.787
820.977	111.475
821.105	110.588
821.233	110.062
821.362	118.650
821.490	113.713
821.618	114.000
821.746	112.912
821.874	112.375
822.002	115.287
822.130	112.838
822.258	108.513
822.387	110.725
822.515	110.050
822.643	111.687
822.771	111.338
822.899	112.400
823.027	113.675
823.155	108.287
823.283	111.937
823.412	111.412
823.540	112.487
823.668	129.463
823.796	109.213
823.924	114.062
824.052	118.275
824.180	109.588
824.308	108.850
824.437	112.263
824.565	111.187
824.693	112.575
824.821	113.975
824.949	113.875
825.077	111.763
825.205	117.112
825.333	115.250
825.462	113.463
825.590	108.737
825.718	113.687
825.846	109.125
825.974	110.388
826.102	113.075
826.230	110.312
826.358	113.425
826.487	109.888
826.615	110.200
826.743	114.075
826.871	116.475
826.999	112.725
827.127	113.600
827.255	112.138
827.383	109.275
827.512	119.687
827.640	114.912
827.768	109.638
827.896	108.888
828.024	108.888
828.152	111.312
828.280	109.963
828.408	111.050
828.537	110.600
828.665	111.825
828.793	110.725
828.921	109.025
829.049	110.900
829.177	108.225
829.305	109.062
829.433	108.825
829.562	109.437
829.690	111.800
829.818	115.287
829.946	113.687
830.074	109.088
830.202	110.187
830.330	112.713
830.458	118.925
830.587	111.912
830.715	111.650
830.843	109.550
830.971	111.650
831.099	112.963
831.227	111.025
831.355	109.025
831.483	106.625
831.612	110.225
831.740	111.662
831.868	120.713
831.996	109.463
832.124	109.888
832.252	108.612
832.380	107.987
832.508	112.175
832.637	113.875
832.765	111.850
832.893	113.162
833.021	113.100
833.149	109.350
833.277	109.963
833.405	108.687
833.533	107.862
833.662	108.187
833.790	111.312
833.918	112.625
834.046	113.475
834.174	115.200
834.302	109.687
834.430	108.187
834.558	107.300
834.687	109.588
834.815	111.963
834.943	107.950
835.071	108.525
835.199	109.800
835.327	112.950
835.455	108.537
835.583	108.850
835.712	110.638
835.840	112.575
835.968	108.175
836.096	110.937
836.224	109.675
836.352	109.537
836.480	111.737
836.608	109.300
836.737	105.200
836.865	105.537
836.993	108.525
837.121	109.213
837.249	108.037
837.377	110.638
837.505	111.088
837.633	111.862
837.762	108.400
837.890	109.187
838.018	114.787
838.146	109.575
838.274	111.750
838.402	113.787
838.530	106.213
838.658	106.825
838.787	108.537
838.915	110.412
839.043	108.100
839.171	113.537
839.299	108.888
839.427	111.900
839.555	116.737
839.683	109.687
839.812	111.062
839.940	106.550
840.068	107.588
840.196	105.900
840.324	112.187
840.452	111.812
840.580	113.763
840.708	112.300
840.837	112.425
840.965	109.062
841.093	109.237
841.221	111.725
841.349	112.050
841.477	109.625
841.605	108.338
841.733	105.650
841.862	109.013
841.990	110.750
842.118	108.412
842.246	108.350
842.374	104.987
842.502	106.800
842.630	109.300
842.758	108.937
842.887	106.437
843.015	109.237
843.143	109.750
843.271	109.700
843.399	111.862
843.527	108.437
843.655	107.088
843.783	107.412
843.912	108.537
844.040	111.362
844.168	116.250
844.296	113.550
844.424	111.187
844.552	111.075
844.680	110.187
844.808	109.975
844.937	106.800
845.065	105.225
845.193	107.537
845.321	106.600
845.449	108.500
845.577	107.375
845.705	110.338
845.833	111.862
845.962	108.200
846.090	110.237
846.218	117.388
846.346	112.812
846.474	107.325
846.602	107.388
846.730	110.300
846.858	106.612
846.987	103.737
847.115	106.600
847.243	111.937
847.371	111.375
847.499	109.350
847.627	106.612
847.755	105.638
847.883	108.838
848.012	109.000
848.140	109.225
848.268	107.750
848.396	107.263
848.524	107.450
848.652	107.275
848.780	106.750
848.908	110.338
849.037	109.275
849.165	108.112
849.293	109.838
849.421	112.375
849.549	108.900
849.677	109.187
849.805	116.825
849.933	108.513
850.062	107.838
850.190	106.138
850.318	107.350
850.446	104.912
850.574	105.513
850.702	109.225
850.830	113.062
850.958	107.338
851.087	106.975
851.215	115.937
851.343	109.138
851.471	110.787
851.599	109.263
851.727	112.513
851.855	107.700
851.983	110.600
852.112	109.237
852.240	108.250
852.368	110.925
852.496	107.162
852.624	107.500
852.752	107.963
852.880	108.187
853.008	112.150
853.137	110.175
853.265	108.388
853.393	109.650
853.521	114.550
853.649	113.737
853.777	107.588
853.905	110.500
854.033	108.375
854.162	106.925
854.290	108.950
854.418	104.338
854.546	105.800
854.674	107.312
854.802	108.600
854.930	108.987
855.058	104.750
855.187	105.912
855.315	104.525
855.443	104.237
855.571	106.088
855.699	107.388
855.827	106.975
855.955	106.575
856.083	107.125
856.212	107.625
856.340	108.713
856.468	110.687
856.596	110.987
856.724	114.513
856.852	108.375
856.980	107.638
857.108	106.713
857.237	108.325
857.365	107.362
857.493	107.187
857.621	108.312
857.749	105.362
857.877	111.088
858.005	111.412
858.133	109.937
858.262	107.425
858.390	106.575
858.518	106.450
858.646	106.750
858.774	106.275
858.902	106.638
859.030	106.475
859.158	106.575
859.287	108.725
859.415	109.513
859.543	106.350
859.671	109.400
859.799	112.187
859.927	112.000
860.055	110.750
860.183	107.787
860.312	107.588
860.440	106.862
860.568	109.775
860.696	107.875
860.824	117.388
860.952	105.875
861.080	107.750
861.208	108.963
861.337	110.412
861.465	109.350
861.593	113.513
861.721	106.975
861.849	105.713
861.977	107.338
862.105	109.850
862.233	105.675
862.362	107.725
862.490	106.600
862.618	107.625
862.746	107.950
862.874	106.900
863.002	108.750
863.130	111.638
863.258	108.213
863.387	110.338
863.515	108.138
863.643	105.437
863.771	107.400
863.899	112.050
864.027	108.125
864.155	107.225
864.283	105.450
864.412	106.600
864.540	107.662
864.668	106.112
864.796	107.325
864.924	107.088
865.052	104.612
865.180	105.812
865.308	105.500
865.437	106.162
865.565	109.000
865.693	109.437
865.821	110.225
865.949	107.487
866.077	106.225
866.205	106.263
866.333	108.525
866.462	108.625
866.590	109.275
866.718	108.050
866.846	106.800
866.974	111.150
867.102	111.388
867.230	106.375
867.358	109.025
867.487	109.725
867.615	111.275
867.743	107.088
867.871	109.862
867.999	107.112
868.127	106.175
868.255	118.450
868.383	111.388
868.512	109.737
868.640	109.550
868.768	105.812
868.896	108.300
869.024	110.875
869.152	109.162
869.280	107.537
869.408	110.037
869.537	107.362
869.665	111.775
869.793	107.187
869.921	112.200
870.049	111.450
870.177	110.475
870.305	119.175
870.433	110.350
870.562	106.000
870.690	105.625
870.818	107.062
870.946	107.638
871.074	105.875
871.202	108.912
871.330	106.625
871.458	104.975
871.587	106.537
871.715	106.037
871.843	106.987
871.971	106.425
872.099	107.062
872.227	108.625
872.355	107.850
872.483	107.125
872.612	108.400
872.740	110.062
872.868	105.812
872.996	108.675
873.124	108.150
873.252	110.550
873.380	108.800
873.508	108.112
873.637	108.287
873.765	111.062
873.893	109.138
874.021	110.175
874.149	107.013
874.277	107.862
874.405	113.175
874.533	109.362
874.662	322.738
874.790	114.675
874.918	114.162
875.046	108.775
875.174	106.588
875.302	105.900
875.430	107.025
875.558	109.025
875.687	110.338
875.815	109.713
875.943	110.625
876.071	110.687
876.199	108.088
876.327	112.125
876.455	107.575
876.583	108.250
876.712	110.250
876.840	108.175
876.968	107.175
877.096	107.925
877.224	105.888
877.352	106.425
877.480	104.825
877.608	105.812
877.737	107.450
877.865	109.500
877.993	108.300
878.121	108.350
878.249	110.237
878.377	107.687
878.505	108.388
878.633	105.225
878.762	106.787
878.890	109.725
879.018	105.412
879.146	108.213
879.274	108.213
879.402	107.487
879.530	106.200
879.658	107.513
879.787	109.300
879.915	109.513
880.043	109.150
880.171	110.525
880.299	108.388
880.427	110.687
880.555	112.013
880.683	110.200
880.812	107.088
880.940	106.350
881.068	108.525
881.196	108.213
881.324	109.112
881.452	107.125
881.580	106.825
881.708	112.237
881.837	107.287
881.965	108.388
882.093	107.650
882.221	105.800
882.349	111.812
882.477	108.650
882.605	110.650
882.733	111.187
882.862	108.037
882.990	106.213
883.118	107.650
883.246	113.400
883.374	110.250
883.502	106.800
883.630	104.050
883.758	107.700
883.887	104.575
884.015	107.125
884.143	105.862
884.271	109.912
884.399	106.525
884.527	107.525
884.655	107.138
884.783	106.588
884.912	107.875
885.040	107.037
885.168	106.537
885.296	106.525
885.424	106.675
885.552	111.138
885.680	105.537
885.808	109.013
885.937	109.475
886.065	107.312
886.193	107.125
886.321	107.838
886.449	108.713
886.577	110.225
886.705	108.412
886.833	108.175
886.962	107.937
887.090	106.687
887.218	106.100
887.346	106.125
887.474	113.525
887.602	110.050
887.730	105.225
887.858	110.675
887.987	107.825
888.115	110.987
888.243	113.062
888.371	110.737
888.499	110.162
888.627	108.537
888.755	108.175
888.883	106.000
889.012	105.175
889.140	106.975
889.268	110.325
889.396	120.500
889.524	108.300
889.652	108.588
889.780	111.338
889.908	107.725
890.037	108.400
890.165	109.588
890.293	110.525
890.421	108.775
890.549	110.925
890.677	111.950
890.805	105.550
890.933	107.150
891.062	107.525
891.190	112.700
891.318	111.500
891.446	111.638
891.574	109.075
891.702	107.263
891.830	106.437
891.958	107.912
892.087	112.237
892.215	107.562
892.343	109.162
892.471	107.825
892.599	109.600
892.727	112.525
892.855	107.463
892.983	108.888
893.112	107.175
893.240	109.775
893.368	109.100
893.496	109.662
893.624	111.450
893.752	112.612
893.880	110.775
894.008	106.350
894.137	115.463
894.265	114.775
894.393	112.100
894.521	108.687
894.649	111.000
894.777	109.075
894.905	109.450
895.033	116.850
895.162	113.850
895.290	114.987
895.418	111.850
895.546	113.275
895.674	107.400
895.802	105.687
895.930	108.275
896.058	105.775
896.187	106.812
896.315	106.062
896.443	109.737
896.571	108.037
896.699	108.075
896.827	108.838
896.955	111.312
897.083	110.175
897.212	107.175
897.340	104.162
897.468	109.013
897.596	111.175
897.724	109.037
897.852	109.950
897.980	108.362
898.108	107.550
898.237	105.250
898.365	106.050
898.493	108.412
898.621	108.200
898.749	105.250
898.877	107.300
899.005	108.275
899.133	107.000
899.262	108.937
899.390	108.050
899.518	110.575
899.646	110.713
899.774	114.225
899.902	120.025
900.030	111.775
900.158	107.925
900.287	108.525
900.415	107.987
900.543	108.025
900.671	109.388
900.799	110.362
900.927	110.375
901.055	107.450
901.183	107.950
901.312	108.687
901.440	113.625
901.568	110.475
901.696	108.150
901.824	107.963
901.952	114.912
902.080	113.537
902.208	110.187
902.337	107.800
902.465	110.662
902.593	111.562
902.721	111.375
902.849	111.487
902.977	110.975
903.105	112.950
903.233	117.662
903.362	113.750
903.490	110.500
903.618	107.150
903.746	111.550
903.874	111.787
904.002	109.400
904.130	116.725
904.258	112.112
904.387	112.612
904.515	107.138
904.643	107.713
904.771	108.350
904.899	110.037
905.027	108.763
905.155	107.013
905.283	111.338
905.412	115.638
905.540	111.437
905.668	109.825
905.796	107.475
905.924	108.713
906.052	109.013
906.180	109.237
906.308	114.975
906.437	113.312
906.565	113.537
906.693	110.350
906.821	107.750
906.949	107.687
907.077	111.787
907.205	115.725
907.333	112.412
907.462	113.287
907.590	114.125
907.718	110.625
907.846	108.588
907.974	112.513
908.102	108.713
908.230	114.125
908.358	116.075
908.487	111.825
908.615	112.537
908.743	112.463
908.871	120.200
908.999	112.650
909.127	112.825
909.255	108.037
909.383	110.638
909.512	117.362
909.640	111.900
909.768	114.175
909.896	122.013
910.024	116.912
910.152	114.350
910.280	120.125
910.408	112.000
910.537	112.187
910.665	114.437
910.793	115.575
910.921	120.325
911.049	115.412
911.177	113.037
911.305	112.025
911.433	111.237
911.562	111.888
911.690	112.725
911.818	122.725
911.946	118.162
912.074	116.312
912.202	113.425
912.330	124.162
912.458	117.350
912.587	116.162
912.715	115.162
912.843	116.725
912.971	122.425
913.099	119.150
913.227	116.412
913.355	116.287
913.483	118.237
913.612	115.162
913.740	128.537
913.868	117.687
