Referenz_HF_PP_at_750.00nm_cut_at_1008.00Y_01.dat
15.05.2023
12:41:00
cut middle at Y: 1008.00
top cursor: 1048 down cursor: 968 mean of: 80 lines , 2560 datapoints
wavelength(nm)	intensity[arb. units]
585.996	2819.125
586.124	2723.162
586.252	2698.425
586.380	2737.925
586.508	2790.525
586.637	2740.825
586.765	2709.200
586.893	2742.387
587.021	2783.713
587.149	2841.088
587.277	2766.062
587.405	2865.125
587.533	2774.625
587.662	2938.713
587.790	2900.150
587.918	2760.838
588.046	2779.650
588.174	2766.963
588.302	2774.925
588.430	2820.350
588.558	2790.437
588.687	2769.125
588.815	2783.375
588.943	2767.200
589.071	2775.300
589.199	2816.500
589.327	2774.250
589.455	2752.175
589.583	2884.963
589.712	2819.475
589.840	2765.312
589.968	2756.287
590.096	2739.838
590.224	2800.275
590.352	2744.100
590.480	2779.625
590.608	2772.300
590.737	2874.225
590.865	2894.425
590.993	2749.875
591.121	2745.900
591.249	2790.425
591.377	2747.075
591.505	2782.225
591.633	2870.675
591.762	2791.625
591.890	2994.600
592.018	2735.725
592.146	2748.550
592.274	2790.363
592.402	2760.175
592.530	2772.300
592.658	3001.075
592.787	2827.325
592.915	2950.275
593.043	2799.850
593.171	2790.650
593.299	2780.012
593.427	2798.325
593.555	2773.162
593.683	2775.025
593.812	2781.775
593.940	2820.988
594.068	2772.200
594.196	2815.637
594.324	2818.700
594.452	2829.175
594.580	2828.662
594.708	2851.187
594.837	2830.713
594.965	2941.450
595.093	2888.925
595.221	2931.412
595.349	3048.213
595.477	2877.075
595.605	2910.000
595.733	2871.175
595.862	3108.012
595.990	2915.937
596.118	2920.437
596.246	3108.525
596.374	2963.025
596.502	2912.762
596.630	2964.662
596.758	2903.762
596.887	2955.375
597.015	2930.412
597.143	2936.675
597.271	2921.925
597.399	2896.400
597.527	2910.125
597.655	2924.062
597.783	2905.500
597.912	2917.200
598.040	2953.050
598.168	3012.037
598.296	2901.787
598.424	2954.125
598.552	2976.600
598.680	2886.988
598.808	3077.950
598.937	2917.875
599.065	2930.625
599.193	3034.537
599.321	3036.512
599.449	2943.137
599.577	2906.588
599.705	3001.137
599.833	2889.150
599.962	2898.075
600.090	2978.025
600.218	2915.275
600.346	3015.025
600.474	2895.500
600.602	2842.475
600.730	2917.562
600.858	2860.175
600.987	3051.625
601.115	2913.925
601.243	2870.625
601.371	2883.575
601.499	2883.975
601.627	2937.925
601.755	2896.262
601.883	2953.150
602.012	2913.150
602.140	2885.287
602.268	3018.937
602.396	2929.525
602.524	2941.338
602.652	2934.350
602.780	2924.463
602.908	2916.975
603.037	2996.950
603.165	2935.637
603.293	2993.387
603.421	2962.800
603.549	2984.312
603.677	3040.312
603.805	2992.325
603.933	3003.363
604.062	3106.988
604.190	3023.863
604.318	2979.988
604.446	3018.100
604.574	3044.575
604.702	3015.450
604.830	3034.750
604.958	3063.613
605.087	3063.562
605.215	3061.363
605.343	3034.725
605.471	3091.475
605.599	3095.800
605.727	3056.675
605.855	3091.825
605.983	3098.162
606.112	3062.437
606.240	3072.475
606.368	3094.100
606.496	3271.838
606.624	3063.300
606.752	3132.537
606.880	3285.162
607.008	3345.125
607.137	3271.262
607.265	3073.238
607.393	3130.287
607.521	3243.012
607.649	3085.088
607.777	3134.850
607.905	3163.375
608.033	3160.613
608.162	3073.550
608.290	3190.113
608.418	3117.025
608.546	3171.588
608.674	3174.512
608.802	3075.937
608.930	3068.162
609.058	3083.113
609.187	3155.425
609.315	3150.062
609.443	3052.175
609.571	3185.625
609.699	3059.613
609.827	3074.625
609.955	3172.687
610.083	3052.238
610.212	3052.875
610.340	3079.113
610.468	3167.762
610.596	3127.488
610.724	3131.812
610.852	3073.075
610.980	3077.850
611.108	3155.162
611.237	3045.575
611.365	3073.738
611.493	3048.637
611.621	3070.213
611.749	3061.488
611.877	3060.412
612.005	3073.250
612.133	3112.525
612.262	3057.713
612.390	3077.050
612.518	3118.175
612.646	3217.463
612.774	3078.750
612.902	3072.450
613.030	3061.100
613.158	3174.850
613.287	3130.175
613.415	3061.950
613.543	3066.875
613.671	3093.400
613.799	3100.625
613.927	3131.300
614.055	3089.113
614.183	3265.088
614.312	3093.912
614.440	3235.262
614.568	3143.750
614.696	3091.988
614.824	3274.762
614.952	3160.100
615.080	3084.613
615.208	3172.012
615.337	3177.512
615.465	3159.812
615.593	3168.725
615.721	3205.125
615.849	3199.037
615.977	3214.200
616.105	3234.687
616.233	3192.338
616.362	3281.238
616.490	3155.250
616.618	3145.887
616.746	3252.625
616.874	3270.262
617.002	3211.887
617.130	3274.162
617.258	3363.662
617.387	3218.537
617.515	3178.800
617.643	3211.463
617.771	3276.300
617.899	3266.125
618.027	3172.475
618.155	3341.863
618.283	3205.113
618.412	3226.162
618.540	3321.012
618.668	3237.238
618.796	3221.125
618.924	3349.425
619.052	3213.238
619.180	3186.025
619.308	3238.950
619.437	3230.150
619.565	3230.325
619.693	3194.287
619.821	3225.275
619.949	3208.287
620.077	3228.750
620.205	3250.125
620.333	3236.613
620.462	3236.650
620.590	3283.825
620.718	3175.800
620.846	3300.575
620.974	3300.787
621.102	3249.062
621.230	3148.287
621.358	3315.238
621.487	3146.137
621.615	3209.025
621.743	3189.700
621.871	3186.500
621.999	3303.887
622.127	3198.950
622.255	3205.525
622.383	3189.113
622.512	3208.387
622.640	3361.338
622.768	3164.387
622.896	3194.187
623.024	3190.950
623.152	3292.725
623.280	3259.713
623.408	3157.375
623.537	3185.075
623.665	3137.050
623.793	3219.075
623.921	3187.312
624.049	3143.387
624.177	3188.037
624.305	3216.975
624.433	3213.062
624.562	3173.338
624.690	3212.425
624.818	3258.150
624.946	3379.463
625.074	3241.350
625.202	3179.100
625.330	3152.662
625.458	3232.200
625.587	3177.625
625.715	3243.588
625.843	3346.812
625.971	3210.625
626.099	3191.125
626.227	3163.400
626.355	3170.250
626.483	3283.100
626.612	3148.113
626.740	3135.863
626.868	3198.412
626.996	3134.825
627.124	3158.562
627.252	3123.600
627.380	3179.338
627.508	3151.512
627.637	3143.925
627.765	3187.600
627.893	3165.988
628.021	3134.425
628.149	3187.550
628.277	3193.937
628.405	3239.100
628.533	3110.963
628.662	3196.175
628.790	3162.687
628.918	3135.775
629.046	3162.450
629.174	3142.287
629.302	3247.988
629.430	3116.062
629.558	3167.350
629.687	3166.150
629.815	3152.475
629.943	3220.937
630.071	3207.588
630.199	3175.637
630.327	3181.950
630.455	3129.425
630.583	3234.963
630.712	3197.125
630.840	3170.812
630.968	3222.500
631.096	3169.312
631.224	3164.725
631.352	3150.088
631.480	3195.575
631.608	3169.988
631.737	3265.187
631.865	3339.325
631.993	3161.625
632.121	3280.662
632.249	3257.500
632.377	3235.588
632.505	3264.037
632.633	3156.600
632.762	3237.100
632.890	3293.588
633.018	3172.575
633.146	3217.750
633.274	3223.713
633.402	3213.137
633.530	3153.363
633.658	3340.637
633.787	3139.575
633.915	3236.562
634.043	3161.238
634.171	3165.137
634.299	3192.375
634.427	3250.088
634.555	3201.613
634.683	3167.287
634.812	3152.075
634.940	3172.437
635.068	3104.338
635.196	3164.838
635.324	3123.850
635.452	3210.825
635.580	3105.912
635.708	3115.425
635.837	3147.275
635.965	3115.187
636.093	3099.825
636.221	3077.262
636.349	3184.387
636.477	3024.300
636.605	3243.325
636.733	3013.088
636.862	3037.012
636.990	3042.338
637.118	3126.275
637.246	3065.238
637.374	3003.800
637.502	3007.213
637.630	2969.662
637.758	3026.625
637.887	2961.825
638.015	2976.838
638.143	2957.812
638.271	2974.463
638.399	2954.762
638.527	2954.350
638.655	2913.400
638.783	3109.488
638.912	2986.863
639.040	2942.350
639.168	2990.387
639.296	2916.463
639.424	3092.675
639.552	2913.300
639.680	2932.375
639.808	2971.475
639.937	2895.488
640.065	2921.700
640.193	2999.387
640.321	2887.588
640.449	2964.213
640.577	3007.850
640.705	2899.425
640.833	3041.450
640.962	2873.700
641.090	2876.675
641.218	2850.075
641.346	2896.150
641.474	2891.738
641.602	2857.175
641.730	2868.088
641.858	2853.925
641.987	2887.838
642.115	2847.613
642.243	2904.925
642.371	2865.687
642.499	2863.988
642.627	2871.713
642.755	2935.900
642.883	2944.475
643.012	2892.037
643.140	2804.050
643.268	2855.250
643.396	2883.463
643.524	2992.700
643.652	2848.425
643.780	2843.225
643.908	2846.012
644.037	2963.687
644.165	2821.037
644.293	2854.725
644.421	2816.175
644.549	2901.812
644.677	2818.475
644.805	2869.450
644.933	2801.500
645.062	2830.213
645.190	2833.187
645.318	2921.762
645.446	2848.275
645.574	2854.437
645.702	2807.675
645.830	3004.687
645.958	2778.925
646.087	3010.700
646.215	2791.863
646.343	3021.300
646.471	2847.338
646.599	2870.000
646.727	2800.187
646.855	2805.937
646.983	2859.637
647.112	2776.963
647.240	2967.113
647.368	2776.488
647.496	2867.312
647.624	2750.512
647.752	2729.200
647.880	2762.275
648.008	2734.450
648.137	2751.287
648.265	2724.575
648.393	2739.187
648.521	2743.200
648.649	2725.562
648.777	2729.738
648.905	2691.200
649.033	2738.850
649.162	2732.175
649.290	2705.300
649.418	2753.963
649.546	2720.275
649.674	2763.713
649.802	2672.912
649.930	2871.338
650.058	2633.850
650.187	2668.637
650.315	2636.875
650.443	2715.300
650.571	2638.275
650.699	2630.475
650.827	2588.787
650.955	2611.875
651.083	2630.187
651.212	2654.738
651.340	2669.925
651.468	2612.600
651.596	2598.912
651.724	2588.000
651.852	2576.175
651.980	2569.100
652.108	2633.687
652.237	2589.387
652.365	2636.662
652.493	2568.162
652.621	2554.912
652.749	2605.825
652.877	2545.213
653.005	2560.088
653.133	2549.287
653.262	2557.900
653.390	2540.162
653.518	2568.850
653.646	2544.738
653.774	2558.613
653.902	2544.475
654.030	2509.887
654.158	2502.975
654.287	2511.225
654.415	2496.875
654.543	2504.187
654.671	2487.988
654.799	2483.125
654.927	2485.150
655.055	2473.762
655.183	2478.900
655.312	2455.000
655.440	2460.988
655.568	2463.062
655.696	2470.988
655.824	2455.137
655.952	2465.363
656.080	2443.037
656.208	2463.650
656.337	2419.588
656.465	2436.775
656.593	2432.937
656.721	2433.225
656.849	2435.750
656.977	2422.450
657.105	2406.175
657.233	2407.675
657.362	2405.762
657.490	2381.525
657.618	2393.000
657.746	2400.838
657.874	2367.350
658.002	2372.225
658.130	2361.025
658.258	2379.113
658.387	2372.037
658.515	2335.150
658.643	2337.037
658.771	2362.750
658.899	2347.100
659.027	2356.200
659.155	2338.225
659.283	2335.350
659.412	2318.637
659.540	2338.787
659.668	2335.450
659.796	2298.613
659.924	2338.287
660.052	2307.725
660.180	2294.650
660.308	2301.650
660.437	2286.613
660.565	2310.437
660.693	2283.588
660.821	2293.787
660.949	2283.950
661.077	2268.025
661.205	2283.687
661.333	2244.488
661.462	2292.387
661.590	2280.175
661.718	2251.525
661.846	2240.537
661.974	2266.225
662.102	2233.000
662.230	2257.500
662.358	2227.213
662.487	2239.613
662.615	2219.637
662.743	2236.963
662.871	2230.975
662.999	2209.025
663.127	2201.875
663.255	2221.500
663.383	2233.375
663.512	2211.162
663.640	2213.687
663.768	2197.687
663.896	2198.400
664.024	2179.275
664.152	2208.475
664.280	2207.975
664.408	2176.350
664.537	2174.113
664.665	2181.325
664.793	2155.050
664.921	2149.325
665.049	2149.575
665.177	2174.700
665.305	2147.950
665.433	2154.900
665.562	2155.000
665.690	2142.512
665.818	2140.812
665.946	2146.925
666.074	2137.312
666.202	2119.075
666.330	2113.338
666.458	2105.387
666.587	2105.600
666.715	2098.887
666.843	2109.088
666.971	2099.137
667.099	2098.312
667.227	2095.787
667.355	2076.488
667.483	2060.625
667.612	2091.037
667.740	2085.287
667.868	2088.675
667.996	2060.562
668.124	2076.075
668.252	2079.000
668.380	2039.325
668.508	2076.500
668.637	2048.200
668.765	2060.000
668.893	2050.275
669.021	2051.687
669.149	2027.513
669.277	2035.175
669.405	2019.213
669.533	2028.200
669.662	2032.912
669.790	1998.937
669.918	2017.400
670.046	2008.187
670.174	1996.975
670.302	1993.263
670.430	1975.075
670.558	1970.812
670.687	1960.725
670.815	1979.775
670.943	1955.775
671.071	1960.200
671.199	1972.025
671.327	1949.275
671.455	1947.287
671.583	1954.175
671.712	1940.187
671.840	1934.412
671.968	1912.537
672.096	1907.325
672.224	1916.138
672.352	1911.550
672.480	1897.737
672.608	1891.713
672.737	1894.213
672.865	1882.487
672.993	1891.888
673.121	1877.900
673.249	1882.475
673.377	1869.100
673.505	1862.425
673.633	1831.575
673.762	1838.300
673.890	1847.287
674.018	1840.450
674.146	1838.725
674.274	1834.062
674.402	1830.825
674.530	1820.388
674.658	1799.525
674.787	1796.162
674.915	1794.687
675.043	1803.312
675.171	1792.312
675.299	1780.000
675.427	1767.812
675.555	1760.475
675.683	1778.800
675.812	1745.250
675.940	1742.225
676.068	1760.162
676.196	1749.013
676.324	1739.425
676.452	1724.050
676.580	1723.750
676.708	1738.838
676.837	1727.800
676.965	1698.475
677.093	1727.075
677.221	1710.787
677.349	1681.250
677.477	1688.562
677.605	1663.350
677.733	1698.987
677.862	1655.412
677.990	1664.037
678.118	1656.237
678.246	1630.225
678.374	1629.125
678.502	1642.075
678.630	1630.950
678.758	1632.437
678.887	1629.700
679.015	1633.912
679.143	1601.487
679.271	1601.237
679.399	1603.250
679.527	1587.987
679.655	1595.350
679.783	1594.812
679.912	1597.975
680.040	1576.662
680.168	1573.100
680.296	1569.187
680.424	1571.287
680.552	1556.425
680.680	1564.588
680.808	1537.338
680.937	1547.975
681.065	1542.775
681.193	1535.925
681.321	1538.862
681.449	1526.450
681.577	1527.475
681.705	1502.825
681.833	1504.225
681.962	1510.263
682.090	1524.562
682.218	1514.975
682.346	1500.437
682.474	1498.013
682.602	1490.537
682.730	1496.800
682.858	1479.287
682.987	1483.075
683.115	1482.612
683.243	1463.388
683.371	1474.575
683.499	1457.675
683.627	1476.025
683.755	1467.475
683.883	1462.737
684.012	1448.638
684.140	1453.862
684.268	1441.912
684.396	1445.100
684.524	1453.138
684.652	1451.175
684.780	1436.888
684.908	1426.162
685.037	1425.362
685.165	1431.300
685.293	1423.312
685.421	1410.925
685.549	1418.700
685.677	1415.388
685.805	1404.125
685.933	1421.088
686.062	1395.500
686.190	1400.500
686.318	1405.213
686.446	1403.325
686.574	1387.287
686.702	1400.662
686.830	1391.300
686.958	1381.487
687.087	1389.312
687.215	1369.187
687.343	1358.763
687.471	1365.987
687.599	1361.537
687.727	1349.300
687.855	1357.500
687.983	1355.650
688.112	1348.437
688.240	1337.100
688.368	1341.437
688.496	1343.400
688.624	1332.062
688.752	1329.987
688.880	1316.075
689.008	1316.562
689.137	1322.737
689.265	1311.600
689.393	1299.700
689.521	1303.687
689.649	1302.850
689.777	1307.600
689.905	1292.550
690.033	1303.000
690.162	1287.963
690.290	1280.500
690.418	1269.625
690.546	1303.725
690.674	1290.275
690.802	1270.300
690.930	1267.100
691.058	1263.162
691.187	1248.138
691.315	1262.275
691.443	1253.500
691.571	1241.475
691.699	1227.850
691.827	1237.100
691.955	1239.912
692.083	1234.725
692.212	1214.112
692.340	1227.350
692.468	1228.338
692.596	1210.112
692.724	1203.687
692.852	1198.088
692.980	1205.850
693.108	1196.950
693.237	1191.325
693.365	1178.463
693.493	1183.025
693.621	1173.475
693.749	1163.600
693.877	1158.650
694.005	1148.025
694.133	1170.225
694.262	1157.825
694.390	1148.062
694.518	1129.150
694.646	1140.175
694.774	1146.775
694.902	1126.925
695.030	1145.013
695.158	1115.638
695.287	1125.138
695.415	1111.513
695.543	1124.412
695.671	1115.225
695.799	1103.175
695.927	1104.463
696.055	1088.487
696.183	1121.812
696.312	1104.400
696.440	1090.525
696.568	1075.112
696.696	1084.425
696.824	1073.687
696.952	1073.513
697.080	1062.662
697.208	1081.437
697.337	1049.350
697.465	1059.662
697.593	1042.600
697.721	1040.550
697.849	1040.013
697.977	1050.662
698.105	1045.388
698.233	1048.963
698.362	1033.338
698.490	1023.337
698.618	1027.912
698.746	1020.138
698.874	1020.825
699.002	1030.187
699.130	1024.787
699.258	1010.600
699.387	998.150
699.515	999.487
699.643	1003.937
699.771	1006.612
699.899	990.200
700.027	987.737
700.155	982.187
700.283	986.675
700.412	985.300
700.540	971.125
700.668	961.575
700.796	966.900
700.924	956.225
701.052	963.462
701.180	953.763
701.308	958.475
701.437	936.913
701.565	945.612
701.693	939.362
701.821	957.163
701.949	942.862
702.077	917.925
702.205	929.538
702.333	925.737
702.462	928.663
702.590	911.862
702.718	921.275
702.846	910.100
702.974	915.975
703.102	907.475
703.230	908.800
703.358	891.500
703.487	882.950
703.615	901.625
703.743	880.550
703.871	898.612
703.999	886.325
704.127	870.587
704.255	868.850
704.383	886.000
704.512	858.663
704.640	869.475
704.768	858.663
704.896	854.013
705.024	851.513
705.152	860.913
705.280	850.413
705.408	851.150
705.537	850.888
705.665	838.212
705.793	843.888
705.921	823.913
706.049	840.400
706.177	829.487
706.305	825.900
706.433	823.163
706.562	811.075
706.690	812.225
706.818	808.850
706.946	806.937
707.074	805.550
707.202	803.437
707.330	795.225
707.458	795.788
707.587	779.800
707.715	794.562
707.843	792.925
707.971	794.812
708.099	791.050
708.227	772.638
708.355	781.200
708.483	769.663
708.612	767.987
708.740	771.538
708.868	759.788
708.996	760.212
709.124	765.450
709.252	753.375
709.380	763.375
709.508	738.325
709.637	752.712
709.765	749.000
709.893	739.587
710.021	749.087
710.149	734.050
710.277	743.725
710.405	735.388
710.533	724.462
710.662	730.687
710.790	731.825
710.918	725.325
711.046	735.225
711.174	717.987
711.302	715.350
711.430	707.175
711.558	718.788
711.687	709.312
711.815	708.150
711.943	714.200
712.071	697.025
712.199	708.125
712.327	696.138
712.455	690.225
712.583	690.513
712.712	708.425
712.840	691.837
712.968	678.112
713.096	683.825
713.224	683.487
713.352	671.650
713.480	666.237
713.608	668.000
713.737	667.837
713.865	660.650
713.993	663.450
714.121	661.000
714.249	663.625
714.377	654.450
714.505	670.712
714.633	655.312
714.762	644.362
714.890	645.462
715.018	650.925
715.146	641.675
715.274	644.337
715.402	637.100
715.530	638.225
715.658	637.087
715.787	639.612
715.915	628.562
716.043	624.175
716.171	631.725
716.299	639.663
716.427	626.225
716.555	624.275
716.683	621.312
716.812	620.263
716.940	614.325
717.068	607.675
717.196	608.862
717.324	608.600
717.452	604.150
717.580	599.400
717.708	603.663
717.837	609.575
717.965	601.600
718.093	587.525
718.221	589.112
718.349	595.000
718.477	591.475
718.605	585.425
718.733	589.112
718.862	574.550
718.990	584.737
719.118	576.263
719.246	574.562
719.374	568.625
719.502	585.612
719.630	582.337
719.758	566.575
719.887	571.225
720.015	566.875
720.143	554.750
720.271	563.062
720.399	568.087
720.527	555.337
720.655	553.962
720.783	543.413
720.912	549.250
721.040	559.200
721.168	549.850
721.296	555.825
721.424	543.362
721.552	533.725
721.680	541.900
721.808	542.300
721.937	540.013
722.065	538.612
722.193	524.700
722.321	533.200
722.449	522.650
722.577	529.500
722.705	517.150
722.833	516.462
722.962	521.388
723.090	506.200
723.218	506.425
723.346	510.887
723.474	509.762
723.602	511.325
723.730	506.288
723.858	511.250
723.987	508.850
724.115	499.350
724.243	504.812
724.371	491.762
724.499	500.137
724.627	493.000
724.755	491.937
724.883	497.775
725.012	485.450
725.140	479.738
725.268	491.462
725.396	479.837
725.524	473.075
725.652	477.863
725.780	478.300
725.908	471.475
726.037	473.275
726.165	469.038
726.293	464.312
726.421	465.137
726.549	469.212
726.677	463.875
726.805	461.363
726.933	457.950
727.062	453.525
727.190	455.562
727.318	457.163
727.446	455.488
727.574	456.450
727.702	446.400
727.830	447.288
727.958	449.200
728.087	442.613
728.215	442.238
728.343	440.062
728.471	442.325
728.599	434.587
728.727	432.288
728.855	437.425
728.983	431.675
729.112	427.975
729.240	430.075
729.368	426.812
729.496	434.512
729.624	433.900
729.752	426.475
729.880	422.962
730.008	419.875
730.137	419.600
730.265	418.425
730.393	422.600
730.521	412.975
730.649	420.163
730.777	413.100
730.905	411.525
731.033	413.988
731.162	408.637
731.290	405.050
731.418	407.613
731.546	425.312
731.674	399.137
731.802	407.700
731.930	407.025
732.058	401.238
732.187	403.800
732.315	393.775
732.443	402.725
732.571	392.038
732.699	391.562
732.827	392.387
732.955	388.863
733.083	387.187
733.212	383.825
733.340	386.500
733.468	378.725
733.596	386.650
733.724	378.825
733.852	383.062
733.980	373.262
734.108	388.500
734.237	386.800
734.365	376.475
734.493	382.212
734.621	380.375
734.749	378.238
734.877	370.875
735.005	373.850
735.133	375.562
735.262	372.962
735.390	368.512
735.518	366.363
735.646	365.950
735.774	361.163
735.902	366.462
736.030	367.038
736.158	371.712
736.287	364.687
736.415	365.550
736.543	361.625
736.671	360.687
736.799	362.075
736.927	366.762
737.055	358.375
737.183	356.900
737.312	358.187
737.440	362.775
737.568	371.262
737.696	357.238
737.824	353.288
737.952	366.337
738.080	354.712
738.208	358.875
738.337	346.475
738.465	356.712
738.593	342.587
738.721	339.325
738.849	345.712
738.977	351.712
739.105	346.500
739.233	342.363
739.362	339.363
739.490	338.325
739.618	341.975
739.746	341.400
739.874	343.988
740.002	341.150
740.130	331.250
740.258	339.187
740.387	336.363
740.515	329.375
740.643	334.225
740.771	339.687
740.899	331.925
741.027	324.275
741.155	333.087
741.283	325.812
741.412	324.962
741.540	324.738
741.668	322.038
741.796	318.950
741.924	326.137
742.052	324.413
742.180	317.762
742.308	321.625
742.437	327.137
742.565	323.800
742.693	326.038
742.821	321.350
742.949	317.950
743.077	318.950
743.205	319.475
743.333	314.600
743.462	321.738
743.590	317.462
743.718	313.825
743.846	314.113
743.974	310.950
744.102	305.400
744.230	310.962
744.358	306.762
744.487	319.288
744.615	304.512
744.743	307.312
744.871	303.312
744.999	308.538
745.127	300.275
745.255	297.925
745.383	303.150
745.512	306.625
745.640	293.212
745.768	293.988
745.896	300.000
746.024	296.975
746.152	294.337
746.280	296.712
746.408	303.012
746.537	298.238
746.665	302.450
746.793	290.875
746.921	291.113
747.049	290.750
747.177	294.975
747.305	287.575
747.433	290.575
747.562	286.562
747.690	283.600
747.818	289.812
747.946	284.050
748.074	298.950
748.202	289.650
748.330	277.387
748.458	287.925
748.587	283.600
748.715	274.925
748.843	281.663
748.971	281.363
749.099	273.288
749.227	272.837
749.355	270.000
749.483	273.887
749.612	272.475
749.740	268.000
749.868	270.137
749.996	273.075
750.124	274.712
750.252	273.125
750.380	270.687
750.508	269.200
750.637	261.700
750.765	266.775
750.893	261.488
751.021	267.725
751.149	262.800
751.277	272.937
751.405	268.363
751.533	273.738
751.662	264.413
751.790	272.288
751.918	274.300
752.046	258.000
752.174	255.275
752.302	267.400
752.430	264.988
752.558	257.550
752.687	259.913
752.815	263.413
752.943	258.750
753.071	247.825
753.199	252.950
753.327	258.725
753.455	246.975
753.583	243.662
753.712	248.175
753.840	244.613
753.968	252.075
754.096	240.400
754.224	245.900
754.352	241.238
754.480	245.187
754.608	239.012
754.737	243.738
754.865	244.300
754.993	248.238
755.121	239.713
755.249	245.437
755.377	235.937
755.505	235.713
755.633	253.537
755.762	235.687
755.890	248.625
756.018	238.675
756.146	235.825
756.274	241.425
756.402	226.000
756.530	234.437
756.658	244.400
756.787	229.525
756.915	227.162
757.043	234.675
757.171	232.312
757.299	226.863
757.427	228.363
757.555	227.238
757.683	233.037
757.812	228.113
757.940	225.375
758.068	225.162
758.196	222.775
758.324	225.838
758.452	221.800
758.580	221.162
758.708	227.225
758.837	218.312
758.965	234.500
759.093	217.713
759.221	216.213
759.349	219.912
759.477	214.387
759.605	215.800
759.733	218.437
759.862	217.375
759.990	216.062
760.118	218.412
760.246	212.175
760.374	211.550
760.502	214.800
760.630	210.062
760.758	209.675
760.887	203.725
761.015	207.100
761.143	207.750
761.271	208.475
761.399	205.475
761.527	204.250
761.655	204.250
761.783	206.713
761.912	199.575
762.040	206.912
762.168	205.200
762.296	202.950
762.424	199.925
762.552	199.450
762.680	204.200
762.808	195.800
762.937	205.900
763.065	201.575
763.193	198.725
763.321	198.425
763.449	193.562
763.577	194.037
763.705	201.875
763.833	219.575
763.962	194.775
764.090	195.687
764.218	191.838
764.346	195.750
764.474	188.762
764.602	196.000
764.730	193.250
764.858	190.625
764.987	193.213
765.115	196.412
765.243	198.500
765.371	188.312
765.499	180.912
765.627	184.325
765.755	185.488
765.883	185.225
766.012	183.750
766.140	182.600
766.268	183.463
766.396	182.125
766.524	179.113
766.652	181.175
766.780	175.100
766.908	183.738
767.037	181.637
767.165	179.113
767.293	187.037
767.421	181.088
767.549	177.937
767.677	184.713
767.805	176.000
767.933	181.412
768.062	182.037
768.190	177.675
768.318	174.475
768.446	190.925
768.574	189.575
768.702	181.537
768.830	179.050
768.958	175.575
769.087	179.363
769.215	181.287
769.343	173.475
769.471	178.900
769.599	177.950
769.727	173.150
769.855	176.525
769.983	176.012
770.112	173.787
770.240	178.613
770.368	174.088
770.496	173.525
770.624	175.250
770.752	176.200
770.880	185.088
771.008	171.437
771.137	174.650
771.265	174.963
771.393	174.925
771.521	174.325
771.649	171.675
771.777	171.512
771.905	172.900
772.033	172.238
772.162	177.963
772.290	173.425
772.418	178.450
772.546	161.062
772.674	167.725
772.802	172.300
772.930	174.187
773.058	166.887
773.187	171.537
773.315	168.687
773.443	168.512
773.571	169.062
773.699	165.238
773.827	164.325
773.955	171.387
774.083	184.687
774.212	165.050
774.340	168.963
774.468	167.613
774.596	166.300
774.724	172.950
774.852	159.963
774.980	170.713
775.108	166.050
775.237	162.700
775.365	166.012
775.493	161.662
775.621	166.338
775.749	163.787
775.877	168.613
776.005	159.825
776.133	167.613
776.262	164.713
776.390	158.975
776.518	171.637
776.646	160.475
776.774	159.562
776.902	164.412
777.030	161.525
777.158	160.863
777.287	162.150
777.415	161.100
777.543	154.738
777.671	159.687
777.799	158.225
777.927	159.375
778.055	161.463
778.183	164.713
778.312	154.800
778.440	153.838
778.568	161.213
778.696	154.537
778.824	161.625
778.952	159.175
779.080	159.287
779.208	163.225
779.337	160.012
779.465	161.550
779.593	159.775
779.721	163.687
779.849	153.037
779.977	156.887
780.105	153.500
780.233	156.750
780.362	166.937
780.490	158.762
780.618	156.825
780.746	157.375
780.874	153.037
781.002	151.875
781.130	155.738
781.258	154.750
781.387	157.887
781.515	154.262
781.643	151.637
781.771	160.050
781.899	155.537
782.027	154.900
782.155	149.300
782.283	148.475
782.412	152.738
782.540	154.512
782.668	154.213
782.796	150.812
782.924	153.500
783.052	146.550
783.180	152.800
783.308	148.137
783.437	153.400
783.565	155.325
783.693	152.238
783.821	153.662
783.949	151.912
784.077	151.588
784.205	155.238
784.333	161.713
784.462	147.562
784.590	154.512
784.718	153.863
784.846	143.213
784.974	152.550
785.102	157.488
785.230	150.912
785.358	159.312
785.487	152.250
785.615	151.113
785.743	147.750
785.871	141.675
785.999	148.075
786.127	144.475
786.255	156.338
786.383	154.838
786.512	145.662
786.640	145.250
786.768	151.363
786.896	147.125
787.024	150.700
787.152	143.775
787.280	143.325
787.408	145.875
787.537	145.200
787.665	145.687
787.793	149.375
787.921	149.725
788.049	143.300
788.177	141.687
788.305	142.537
788.433	147.137
788.562	144.800
788.690	140.637
788.818	140.025
788.946	144.262
789.074	141.662
789.202	146.550
789.330	141.738
789.458	144.238
789.587	143.000
789.715	143.950
789.843	145.275
789.971	138.175
790.099	138.950
790.227	144.713
790.355	137.700
790.483	146.600
790.612	142.713
790.740	145.463
790.868	149.113
790.996	141.725
791.124	143.762
791.252	141.238
791.380	145.613
791.508	138.425
791.637	151.000
791.765	134.775
791.893	139.575
792.021	143.350
792.149	140.200
792.277	141.437
792.405	140.213
792.533	150.988
792.662	135.363
792.790	135.287
792.918	143.625
793.046	134.750
793.174	138.187
793.302	138.200
793.430	142.450
793.558	147.800
793.687	138.375
793.815	143.287
793.943	139.713
794.071	136.363
794.199	132.437
794.327	139.975
794.455	155.250
794.583	149.975
794.712	141.812
794.840	138.887
794.968	138.050
795.096	143.187
795.224	137.187
795.352	134.588
795.480	137.562
795.608	136.537
795.737	139.125
795.865	139.275
795.993	131.613
796.121	131.075
796.249	137.137
796.377	136.750
796.505	136.762
796.633	135.050
796.762	134.863
796.890	142.863
797.018	133.450
797.146	134.537
797.274	132.000
797.402	132.625
797.530	133.475
797.658	131.963
797.787	140.463
797.915	134.200
798.043	136.050
798.171	139.175
798.299	133.463
798.427	132.713
798.555	135.175
798.683	131.900
798.812	133.100
798.940	132.062
799.068	135.113
799.196	136.062
799.324	127.388
799.452	138.762
799.580	133.975
799.708	144.175
799.837	128.838
799.965	129.750
800.093	134.463
800.221	131.650
800.349	134.475
800.477	129.137
800.605	131.662
800.733	131.900
800.862	128.825
800.990	147.687
801.118	134.575
801.246	130.637
801.374	132.975
801.502	130.675
801.630	128.575
801.758	128.050
801.887	132.963
802.015	128.687
802.143	128.012
802.271	130.000
802.399	133.012
802.527	133.812
802.655	131.662
802.783	138.050
802.912	132.075
803.040	128.887
803.168	124.937
803.296	125.838
803.424	124.412
803.552	129.137
803.680	124.187
803.808	128.775
803.937	128.137
804.065	129.850
804.193	131.325
804.321	136.600
804.449	126.287
804.577	125.737
804.705	131.488
804.833	122.362
804.962	127.662
805.090	123.562
805.218	130.675
805.346	122.838
805.474	124.263
805.602	139.713
805.730	124.187
805.858	123.725
805.987	132.412
806.115	131.312
806.243	127.963
806.371	122.525
806.499	125.575
806.627	122.750
806.755	131.625
806.883	123.250
807.012	123.050
807.140	124.075
807.268	123.937
807.396	130.050
807.524	119.400
807.652	126.287
807.780	135.512
807.908	123.838
808.037	128.512
808.165	129.975
808.293	125.588
808.421	134.437
808.549	124.425
808.677	119.187
808.805	132.713
808.933	123.062
809.062	125.475
809.190	140.738
809.318	125.575
809.446	122.350
809.574	129.787
809.702	123.325
809.830	122.950
809.958	127.700
810.087	119.475
810.215	128.675
810.343	135.325
810.471	125.263
810.599	118.275
810.727	120.800
810.855	117.463
810.983	120.513
811.112	124.737
811.240	120.638
811.368	119.375
811.496	130.225
811.624	123.325
811.752	119.375
811.880	117.388
812.008	113.713
812.137	121.325
812.265	119.725
812.393	123.600
812.521	120.937
812.649	121.412
812.777	119.100
812.905	125.687
813.033	116.862
813.162	117.362
813.290	115.400
813.418	132.312
813.546	124.312
813.674	120.862
813.802	125.588
813.930	118.900
814.058	113.900
814.187	117.763
814.315	123.400
814.443	119.200
814.571	113.963
814.699	123.025
814.827	118.963
814.955	119.875
815.083	119.600
815.212	117.325
815.340	119.513
815.468	116.987
815.596	118.725
815.724	120.588
815.852	122.475
815.980	114.687
816.108	116.950
816.237	117.250
816.365	115.075
816.493	117.500
816.621	114.963
816.749	115.200
816.877	118.088
817.005	119.475
817.133	114.237
817.262	114.425
817.390	122.912
817.518	114.362
817.646	121.963
817.774	116.125
817.902	120.250
818.030	116.088
818.158	121.237
818.287	121.588
818.415	112.250
818.543	114.100
818.671	120.362
818.799	116.825
818.927	118.250
819.055	113.112
819.183	115.638
819.312	112.987
819.440	116.662
819.568	116.112
819.696	122.138
819.824	120.950
819.952	111.612
820.080	113.650
820.208	114.075
820.337	114.463
820.465	115.362
820.593	115.075
820.721	117.300
820.849	116.700
820.977	115.700
821.105	117.388
821.233	112.000
821.362	123.937
821.490	111.250
821.618	112.500
821.746	113.275
821.874	113.362
822.002	114.213
822.130	116.162
822.258	111.662
822.387	114.100
822.515	111.937
822.643	112.900
822.771	115.162
822.899	115.900
823.027	113.225
823.155	109.713
823.283	112.250
823.412	114.500
823.540	113.850
823.668	121.888
823.796	112.100
823.924	117.000
824.052	118.750
824.180	111.250
824.308	112.475
824.437	112.450
824.565	112.800
824.693	115.850
824.821	113.300
824.949	112.275
825.077	114.200
825.205	119.800
825.333	114.763
825.462	115.050
825.590	110.513
825.718	117.800
825.846	114.037
825.974	115.125
826.102	115.963
826.230	115.187
826.358	111.713
826.487	109.338
826.615	111.900
826.743	111.450
826.871	119.125
826.999	116.425
827.127	115.263
827.255	111.075
827.383	109.900
827.512	117.112
827.640	115.600
827.768	110.812
827.896	110.975
828.024	113.500
828.152	114.600
828.280	111.263
828.408	113.862
828.537	113.062
828.665	112.300
828.793	110.987
828.921	110.075
829.049	108.650
829.177	106.463
829.305	108.737
829.433	110.225
829.562	109.725
829.690	111.463
829.818	112.900
829.946	108.912
830.074	108.200
830.202	115.075
830.330	114.775
830.458	120.713
830.587	109.875
830.715	110.112
830.843	106.812
830.971	110.612
831.099	108.900
831.227	108.350
831.355	109.000
831.483	110.437
831.612	114.763
831.740	109.287
831.868	120.237
831.996	109.650
832.124	111.325
832.252	107.000
832.380	110.950
832.508	111.888
832.637	110.362
832.765	113.025
832.893	116.075
833.021	112.725
833.149	109.588
833.277	107.900
833.405	108.638
833.533	106.687
833.662	109.162
833.790	112.013
833.918	111.600
834.046	114.088
834.174	114.088
834.302	109.075
834.430	109.737
834.558	117.825
834.687	111.125
834.815	109.600
834.943	109.213
835.071	106.375
835.199	106.200
835.327	112.987
835.455	107.975
835.583	108.825
835.712	106.638
835.840	110.200
835.968	109.625
836.096	111.500
836.224	112.812
836.352	107.812
836.480	111.138
836.608	116.713
836.737	108.350
836.865	107.687
836.993	106.138
837.121	108.000
837.249	109.463
837.377	113.250
837.505	110.900
837.633	108.650
837.762	107.000
837.890	113.537
838.018	113.638
838.146	108.812
838.274	113.662
838.402	111.912
838.530	108.675
838.658	106.450
838.787	111.287
838.915	109.925
839.043	107.338
839.171	111.800
839.299	110.875
839.427	108.612
839.555	115.487
839.683	111.162
839.812	106.700
839.940	107.575
840.068	108.425
840.196	107.237
840.324	110.150
840.452	111.225
840.580	114.450
840.708	109.675
840.837	110.050
840.965	110.187
841.093	112.450
841.221	110.400
841.349	109.600
841.477	108.175
841.605	107.400
841.733	106.625
841.862	108.037
841.990	109.225
842.118	108.150
842.246	107.100
842.374	105.812
842.502	107.537
842.630	109.000
842.758	111.812
842.887	109.338
843.015	109.138
843.143	110.237
843.271	109.475
843.399	110.900
843.527	109.463
843.655	108.037
843.783	106.562
843.912	107.800
844.040	112.300
844.168	117.825
844.296	113.487
844.424	108.475
844.552	110.875
844.680	108.400
844.808	110.650
844.937	105.325
845.065	104.037
845.193	106.463
845.321	108.162
845.449	109.263
845.577	107.213
845.705	109.450
845.833	108.912
845.962	105.763
846.090	105.125
846.218	112.838
846.346	112.525
846.474	108.713
846.602	107.912
846.730	107.763
846.858	105.338
846.987	105.950
847.115	107.800
847.243	112.737
847.371	110.675
847.499	112.037
847.627	106.200
847.755	105.888
847.883	107.537
848.012	108.812
848.140	107.475
848.268	107.000
848.396	106.650
848.524	106.100
848.652	105.500
848.780	106.550
848.908	110.537
849.037	109.537
849.165	109.763
849.293	112.150
849.421	110.213
849.549	106.312
849.677	109.912
849.805	112.412
849.933	110.850
850.062	107.250
850.190	107.875
850.318	107.200
850.446	106.925
850.574	106.787
850.702	107.737
850.830	108.588
850.958	110.650
851.087	107.275
851.215	114.650
851.343	108.612
851.471	108.700
851.599	108.875
851.727	110.787
851.855	105.150
851.983	108.725
852.112	108.513
852.240	108.125
852.368	104.362
852.496	102.350
852.624	104.513
852.752	106.150
852.880	106.662
853.008	111.513
853.137	109.987
853.265	107.350
853.393	112.112
853.521	112.450
853.649	110.325
853.777	106.162
853.905	108.375
854.033	106.350
854.162	108.987
854.290	109.162
854.418	105.450
854.546	108.100
854.674	108.612
854.802	105.638
854.930	105.250
855.058	104.450
855.187	105.475
855.315	104.237
855.443	103.713
855.571	104.400
855.699	109.187
855.827	110.062
855.955	108.375
856.083	105.650
856.212	107.412
856.340	106.625
856.468	112.125
856.596	106.687
856.724	111.312
856.852	107.350
856.980	106.150
857.108	107.900
857.237	110.500
857.365	108.787
857.493	107.388
857.621	108.250
857.749	103.437
857.877	108.825
858.005	111.750
858.133	111.650
858.262	108.312
858.390	107.987
858.518	105.312
858.646	108.213
858.774	109.025
858.902	107.975
859.030	106.575
859.158	106.225
859.287	109.013
859.415	107.300
859.543	106.175
859.671	110.838
859.799	110.838
859.927	108.537
860.055	108.362
860.183	105.638
860.312	108.400
860.440	108.225
860.568	111.638
860.696	109.400
860.824	118.875
860.952	104.850
861.080	106.500
861.208	106.562
861.337	106.000
861.465	107.150
861.593	112.450
861.721	104.575
861.849	104.950
861.977	107.338
862.105	106.537
862.233	106.963
862.362	109.150
862.490	107.050
862.618	106.862
862.746	106.300
862.874	107.625
863.002	107.350
863.130	110.537
863.258	108.463
863.387	108.263
863.515	106.725
863.643	105.088
863.771	105.838
863.899	107.025
864.027	105.362
864.155	108.725
864.283	110.537
864.412	106.787
864.540	104.925
864.668	105.312
864.796	107.975
864.924	109.213
865.052	105.850
865.180	106.225
865.308	104.400
865.437	105.162
865.565	106.638
865.693	106.437
865.821	108.787
865.949	115.088
866.077	107.588
866.205	104.675
866.333	105.750
866.462	106.550
866.590	110.112
866.718	111.650
866.846	107.225
866.974	107.850
867.102	111.612
867.230	107.100
867.358	108.250
867.487	107.013
867.615	105.475
867.743	107.088
867.871	108.138
867.999	106.412
868.127	108.713
868.255	119.487
868.383	110.600
868.512	107.375
868.640	107.088
868.768	108.287
868.896	109.487
869.024	110.263
869.152	109.200
869.280	105.263
869.408	108.325
869.537	107.950
869.665	106.037
869.793	106.925
869.921	111.088
870.049	111.388
870.177	106.950
870.305	116.638
870.433	111.200
870.562	107.850
870.690	104.588
870.818	105.575
870.946	106.912
871.074	106.750
871.202	106.838
871.330	105.638
871.458	104.787
871.587	106.175
871.715	105.075
871.843	107.750
871.971	109.650
872.099	106.550
872.227	106.687
872.355	108.775
872.483	104.763
872.612	109.400
872.740	109.375
872.868	104.975
872.996	107.862
873.124	108.125
873.252	109.588
873.380	109.112
873.508	108.537
873.637	105.775
873.765	107.825
873.893	110.537
874.021	109.513
874.149	107.937
874.277	107.175
874.405	113.375
874.533	105.662
874.662	323.812
874.790	105.838
874.918	114.737
875.046	108.425
875.174	107.700
875.302	106.275
875.430	109.275
875.558	108.050
875.687	111.687
875.815	108.575
875.943	106.437
876.071	111.300
876.199	109.237
876.327	111.838
876.455	105.162
876.583	113.338
876.712	109.400
876.840	108.825
876.968	106.888
877.096	107.412
877.224	106.412
877.352	104.350
877.480	106.450
877.608	108.475
877.737	107.550
877.865	105.388
877.993	111.550
878.121	107.125
878.249	108.450
878.377	106.588
878.505	107.437
878.633	107.550
878.762	106.312
878.890	108.612
879.018	107.200
879.146	110.487
879.274	108.437
879.402	111.300
879.530	112.763
879.658	110.562
879.787	108.675
879.915	110.475
880.043	107.713
880.171	107.263
880.299	106.650
880.427	109.200
880.555	111.200
880.683	110.112
880.812	109.287
880.940	109.213
881.068	109.612
881.196	106.737
881.324	107.675
881.452	106.487
881.580	109.162
881.708	110.562
881.837	105.437
881.965	109.925
882.093	107.412
882.221	106.425
882.349	114.388
882.477	115.487
882.605	117.900
882.733	109.250
882.862	105.075
882.990	107.375
883.118	109.062
883.246	108.763
883.374	110.388
883.502	105.487
883.630	105.763
883.758	109.987
883.887	107.888
884.015	106.412
884.143	107.825
884.271	109.025
884.399	110.100
884.527	107.600
884.655	105.575
884.783	107.187
884.912	110.250
885.040	109.812
885.168	108.725
885.296	107.900
885.424	107.237
885.552	112.850
885.680	111.700
885.808	110.787
885.937	113.138
886.065	110.362
886.193	108.412
886.321	107.275
886.449	107.700
886.577	111.638
886.705	110.050
886.833	108.463
886.962	107.750
887.090	109.362
887.218	111.125
887.346	108.175
887.474	114.037
887.602	114.062
887.730	109.487
887.858	110.900
887.987	111.700
888.115	118.725
888.243	112.687
888.371	110.362
888.499	112.825
888.627	108.475
888.755	111.537
888.883	108.763
889.012	106.812
889.140	109.362
889.268	111.287
889.396	113.562
889.524	108.625
889.652	107.350
889.780	106.388
889.908	108.388
890.037	109.362
890.165	107.737
890.293	110.325
890.421	112.237
890.549	109.450
890.677	114.000
890.805	108.150
890.933	110.638
891.062	111.450
891.190	112.050
891.318	110.862
891.446	108.375
891.574	109.000
891.702	106.025
891.830	108.575
891.958	109.050
892.087	111.888
892.215	110.000
892.343	109.787
892.471	108.187
892.599	110.437
892.727	112.937
892.855	109.487
892.983	109.200
893.112	108.287
893.240	111.125
893.368	108.975
893.496	111.400
893.624	112.588
893.752	111.862
893.880	114.487
894.008	108.500
894.137	117.662
894.265	113.437
894.393	113.338
894.521	111.725
894.649	113.075
894.777	110.600
894.905	110.312
895.033	121.888
895.162	111.888
895.290	114.025
895.418	114.612
895.546	112.162
895.674	117.162
895.802	109.475
895.930	108.112
896.058	107.000
896.187	106.687
896.315	109.050
896.443	109.062
896.571	113.588
896.699	109.937
896.827	110.000
896.955	111.237
897.083	112.525
897.212	108.963
897.340	106.450
897.468	107.825
897.596	108.662
897.724	108.588
897.852	114.400
897.980	111.525
898.108	108.025
898.237	109.650
898.365	108.575
898.493	109.425
898.621	109.037
898.749	108.588
898.877	109.075
899.005	108.513
899.133	108.975
899.262	109.975
899.390	108.850
899.518	111.150
899.646	109.950
899.774	116.650
899.902	122.463
900.030	109.713
900.158	110.687
900.287	110.775
900.415	109.750
900.543	109.875
900.671	113.950
900.799	110.588
900.927	112.300
901.055	106.562
901.183	111.150
901.312	109.562
901.440	113.037
901.568	113.600
901.696	112.150
901.824	110.125
901.952	116.650
902.080	112.425
902.208	109.600
902.337	112.550
902.465	111.862
902.593	111.687
902.721	109.425
902.849	107.225
902.977	110.687
903.105	117.237
903.233	122.437
903.362	112.987
903.490	108.125
903.618	108.763
903.746	113.162
903.874	111.550
904.002	111.312
904.130	113.463
904.258	110.987
904.387	110.737
904.515	108.638
904.643	109.575
904.771	108.787
904.899	111.700
905.027	112.662
905.155	110.150
905.283	113.162
905.412	116.750
905.540	113.437
905.668	106.838
905.796	108.037
905.924	110.112
906.052	111.787
906.180	110.025
906.308	114.600
906.437	112.875
906.565	113.638
906.693	110.475
906.821	109.112
906.949	111.862
907.077	112.362
907.205	114.937
907.333	111.550
907.462	110.263
907.590	114.138
907.718	113.025
907.846	111.425
907.974	110.838
908.102	110.175
908.230	111.475
908.358	116.713
908.487	113.287
908.615	110.562
908.743	109.187
908.871	121.713
908.999	114.350
909.127	117.600
909.255	107.675
909.383	110.513
909.512	115.763
909.640	111.138
909.768	117.050
909.896	120.237
910.024	115.612
910.152	114.750
910.280	120.162
910.408	111.000
910.537	114.338
910.665	118.263
910.793	114.925
910.921	118.912
911.049	113.662
911.177	111.450
911.305	115.250
911.433	112.612
911.562	113.237
911.690	111.025
911.818	120.787
911.946	113.287
912.074	114.200
912.202	115.500
912.330	114.950
912.458	116.450
912.587	121.100
912.715	116.800
912.843	115.888
912.971	114.375
913.099	117.263
913.227	117.050
913.355	118.187
913.483	113.463
913.612	112.037
913.740	120.225
913.868	116.025
