sample15_PP_at_750.00nm_cut_at_1008.00Y_01.dat
15.05.2023
12:33:12
cut middle at Y: 1008.00
top cursor: 1048 down cursor: 968 mean of: 80 lines , 2560 datapoints
wavelength(nm)	intensity[arb. units]
585.996	1290.075
586.124	1267.338
586.252	1270.975
586.380	1255.525
586.508	1269.787
586.637	1277.412
586.765	1279.625
586.893	1284.912
587.021	1285.888
587.149	1283.625
587.277	1281.850
587.405	1279.412
587.533	1274.562
587.662	1294.375
587.790	1294.937
587.918	1286.225
588.046	1287.250
588.174	1277.187
588.302	1294.713
588.430	1283.487
588.558	1283.475
588.687	1287.425
588.815	1307.237
588.943	1286.500
589.071	1298.088
589.199	1302.487
589.327	1280.987
589.455	1281.025
589.583	1292.312
589.712	1301.800
589.840	1294.362
589.968	1284.787
590.096	1295.838
590.224	1297.187
590.352	1287.763
590.480	1288.600
590.608	1301.412
590.737	1281.275
590.865	1294.812
590.993	1292.400
591.121	1299.950
591.249	1303.687
591.377	1291.888
591.505	1295.812
591.633	1294.425
591.762	1313.675
591.890	1299.187
592.018	1302.463
592.146	1296.513
592.274	1317.912
592.402	1303.925
592.530	1307.375
592.658	1315.713
592.787	1305.638
592.915	1305.987
593.043	1310.175
593.171	1307.100
593.299	1327.787
593.427	1328.475
593.555	1321.037
593.683	1313.862
593.812	1319.912
593.940	1334.150
594.068	1322.088
594.196	1357.912
594.324	1321.750
594.452	1344.638
594.580	1342.400
594.708	1331.025
594.837	1344.562
594.965	1346.062
595.093	1354.562
595.221	1339.825
595.349	1371.062
595.477	1351.600
595.605	1355.075
595.733	1379.675
595.862	1379.062
595.990	1361.112
596.118	1376.200
596.246	1385.763
596.374	1386.763
596.502	1395.862
596.630	1383.075
596.758	1390.525
596.887	1394.400
597.015	1403.912
597.143	1375.687
597.271	1392.250
597.399	1401.237
597.527	1396.338
597.655	1402.612
597.783	1404.162
597.912	1389.900
598.040	1390.275
598.168	1402.400
598.296	1390.213
598.424	1398.450
598.552	1386.000
598.680	1390.888
598.808	1377.463
598.937	1392.650
599.065	1400.250
599.193	1396.838
599.321	1373.850
599.449	1406.325
599.577	1398.112
599.705	1381.450
599.833	1396.325
599.962	1373.150
600.090	1388.463
600.218	1395.000
600.346	1389.750
600.474	1400.225
600.602	1393.138
600.730	1394.037
600.858	1401.588
600.987	1383.338
601.115	1400.388
601.243	1375.787
601.371	1396.675
601.499	1406.150
601.627	1397.550
601.755	1409.963
601.883	1412.888
602.012	1407.713
602.140	1401.062
602.268	1426.162
602.396	1415.487
602.524	1416.888
602.652	1416.963
602.780	1413.300
602.908	1417.437
603.037	1434.013
603.165	1430.375
603.293	1447.037
603.421	1447.050
603.549	1440.300
603.677	1477.963
603.805	1437.287
603.933	1463.075
604.062	1453.187
604.190	1476.362
604.318	1451.300
604.446	1483.437
604.574	1475.250
604.702	1477.775
604.830	1474.825
604.958	1485.575
605.087	1496.150
605.215	1491.975
605.343	1506.125
605.471	1498.275
605.599	1504.850
605.727	1507.537
605.855	1518.963
605.983	1491.513
606.112	1519.375
606.240	1520.700
606.368	1522.550
606.496	1524.625
606.624	1508.187
606.752	1526.463
606.880	1526.937
607.008	1537.425
607.137	1536.600
607.265	1549.588
607.393	1555.487
607.521	1550.275
607.649	1527.862
607.777	1525.263
607.905	1537.763
608.033	1543.925
608.162	1535.437
608.290	1543.937
608.418	1545.912
608.546	1548.025
608.674	1570.437
608.802	1550.213
608.930	1544.437
609.058	1541.650
609.187	1553.600
609.315	1532.237
609.443	1542.200
609.571	1548.725
609.699	1545.600
609.827	1538.150
609.955	1555.037
610.083	1548.588
610.212	1536.200
610.340	1550.700
610.468	1547.550
610.596	1554.187
610.724	1547.750
610.852	1554.888
610.980	1551.338
611.108	1553.937
611.237	1545.187
611.365	1556.975
611.493	1554.725
611.621	1562.325
611.749	1565.963
611.877	1567.225
612.005	1559.250
612.133	1553.937
612.262	1554.987
612.390	1563.000
612.518	1567.412
612.646	1564.412
612.774	1572.213
612.902	1575.525
613.030	1588.263
613.158	1582.100
613.287	1616.600
613.415	1593.862
613.543	1581.850
613.671	1595.588
613.799	1612.825
613.927	1598.150
614.055	1585.775
614.183	1615.338
614.312	1607.963
614.440	1601.237
614.568	1601.287
614.696	1640.162
614.824	1611.100
614.952	1619.600
615.080	1629.650
615.208	1631.350
615.337	1622.475
615.465	1624.250
615.593	1648.537
615.721	1652.400
615.849	1646.763
615.977	1654.100
616.105	1647.787
616.233	1657.175
616.362	1661.312
616.490	1651.875
616.618	1659.737
616.746	1655.300
616.874	1686.437
617.002	1685.850
617.130	1686.412
617.258	1692.800
617.387	1683.225
617.515	1697.925
617.643	1692.425
617.771	1685.025
617.899	1703.750
618.027	1697.562
618.155	1706.713
618.283	1690.000
618.412	1706.550
618.540	1713.513
618.668	1706.025
618.796	1700.713
618.924	1716.463
619.052	1716.400
619.180	1705.475
619.308	1714.400
619.437	1709.912
619.565	1710.838
619.693	1708.513
619.821	1711.075
619.949	1701.263
620.077	1712.650
620.205	1731.013
620.333	1715.062
620.462	1715.750
620.590	1727.650
620.718	1724.825
620.846	1720.687
620.974	1767.487
621.102	1718.612
621.230	1728.575
621.358	1743.437
621.487	1732.875
621.615	1737.825
621.743	1759.187
621.871	1748.213
621.999	1730.662
622.127	1740.275
622.255	1731.562
622.383	1747.250
622.512	1739.287
622.640	1727.162
622.768	1746.588
622.896	1727.687
623.024	1721.525
623.152	1750.750
623.280	1745.338
623.408	1737.825
623.537	1744.750
623.665	1753.450
623.793	1765.525
623.921	1743.162
624.049	1738.138
624.177	1752.687
624.305	1753.013
624.433	1756.388
624.562	1751.763
624.690	1742.075
624.818	1758.187
624.946	1779.537
625.074	1766.013
625.202	1773.612
625.330	1761.737
625.458	1761.287
625.587	1762.275
625.715	1771.187
625.843	1770.725
625.971	1774.750
626.099	1784.537
626.227	1782.500
626.355	1760.850
626.483	1786.800
626.612	1770.912
626.740	1779.450
626.868	1782.100
626.996	1789.537
627.124	1761.138
627.252	1767.162
627.380	1788.525
627.508	1793.400
627.637	1780.162
627.765	1785.450
627.893	1802.088
628.021	1781.350
628.149	1812.575
628.277	1839.550
628.405	1818.437
628.533	1814.400
628.662	1804.000
628.790	1808.050
628.918	1804.812
629.046	1816.350
629.174	1803.588
629.302	1833.575
629.430	1835.500
629.558	1822.825
629.687	1828.750
629.815	1824.825
629.943	1830.425
630.071	1826.700
630.199	1825.737
630.327	1827.925
630.455	1835.912
630.583	1852.025
630.712	1856.112
630.840	1838.400
630.968	1873.862
631.096	1875.075
631.224	1849.062
631.352	1868.025
631.480	1860.713
631.608	1857.725
631.737	1884.138
631.865	1882.513
631.993	1870.362
632.121	1882.475
632.249	1892.600
632.377	1893.350
632.505	1878.112
632.633	1877.200
632.762	1881.725
632.890	1895.650
633.018	1899.400
633.146	1905.687
633.274	1896.275
633.402	1889.287
633.530	1885.437
633.658	1921.450
633.787	1892.600
633.915	1903.150
634.043	1897.925
634.171	1905.600
634.299	1917.812
634.427	1908.412
634.555	1905.537
634.683	1918.175
634.812	1912.862
634.940	1917.500
635.068	1901.800
635.196	1905.463
635.324	1922.138
635.452	1922.200
635.580	1910.575
635.708	1899.900
635.837	1903.700
635.965	1916.475
636.093	1904.250
636.221	1897.513
636.349	1914.213
636.477	1887.275
636.605	1919.287
636.733	1892.362
636.862	1880.000
636.990	1893.013
637.118	1898.487
637.246	1890.463
637.374	1891.487
637.502	1870.500
637.630	1889.250
637.758	1886.437
637.887	1888.687
638.015	1876.925
638.143	1890.787
638.271	1878.237
638.399	1876.787
638.527	1873.862
638.655	1866.425
638.783	1879.750
638.912	1865.162
639.040	1857.513
639.168	1872.650
639.296	1872.737
639.424	1889.325
639.552	1880.537
639.680	1896.362
639.808	1874.400
639.937	1868.838
640.065	1882.800
640.193	1883.225
640.321	1868.162
640.449	1873.850
640.577	1889.213
640.705	1849.700
640.833	1873.700
640.962	1883.500
641.090	1867.350
641.218	1879.937
641.346	1861.400
641.474	1864.162
641.602	1858.425
641.730	1882.312
641.858	1877.612
641.987	1872.500
642.115	1882.450
642.243	1878.425
642.371	1907.487
642.499	1883.950
642.627	1883.650
642.755	1866.662
642.883	1913.763
643.012	1884.737
643.140	1888.300
643.268	1888.612
643.396	1897.925
643.524	1894.025
643.652	1894.625
643.780	1899.513
643.908	1912.112
644.037	1897.550
644.165	1894.362
644.293	1913.750
644.421	1893.187
644.549	1915.912
644.677	1921.600
644.805	1907.963
644.933	1898.900
645.062	1905.737
645.190	1891.862
645.318	1890.112
645.446	1916.088
645.574	1917.713
645.702	1907.850
645.830	1922.388
645.958	1927.763
646.087	1917.100
646.215	1910.750
646.343	1926.312
646.471	1921.987
646.599	1918.700
646.727	1910.763
646.855	1908.650
646.983	1922.550
647.112	1923.287
647.240	1949.513
647.368	1918.375
647.496	1929.562
647.624	1919.950
647.752	1926.875
647.880	1914.975
648.008	1913.925
648.137	1910.687
648.265	1905.550
648.393	1904.450
648.521	1935.888
648.649	1920.687
648.777	1905.600
648.905	1912.325
649.033	1890.100
649.162	1901.888
649.290	1905.888
649.418	1896.425
649.546	1896.812
649.674	1911.500
649.802	1898.025
649.930	1896.425
650.058	1888.287
650.187	1895.588
650.315	1893.713
650.443	1884.912
650.571	1895.562
650.699	1906.925
650.827	1902.763
650.955	1878.275
651.083	1883.987
651.212	1890.513
651.340	1875.937
651.468	1900.388
651.596	1873.162
651.724	1872.187
651.852	1869.125
651.980	1869.562
652.108	1890.638
652.237	1849.175
652.365	1858.537
652.493	1872.125
652.621	1848.850
652.749	1876.600
652.877	1851.662
653.005	1849.463
653.133	1869.588
653.262	1858.612
653.390	1849.862
653.518	1850.088
653.646	1839.562
653.774	1864.362
653.902	1855.088
654.030	1844.175
654.158	1828.763
654.287	1858.525
654.415	1840.450
654.543	1846.350
654.671	1846.600
654.799	1823.300
654.927	1843.937
655.055	1826.050
655.183	1814.325
655.312	1824.013
655.440	1835.638
655.568	1825.963
655.696	1821.437
655.824	1838.687
655.952	1822.987
656.080	1834.150
656.208	1816.937
656.337	1807.088
656.465	1838.025
656.593	1822.250
656.721	1823.088
656.849	1830.400
656.977	1822.713
657.105	1794.588
657.233	1815.088
657.362	1793.000
657.490	1802.787
657.618	1807.000
657.746	1808.250
657.874	1784.562
658.002	1796.687
658.130	1793.263
658.258	1795.625
658.387	1808.600
658.515	1776.237
658.643	1796.338
658.771	1792.838
658.899	1799.850
659.027	1799.325
659.155	1786.900
659.283	1788.562
659.412	1788.713
659.540	1788.588
659.668	1787.100
659.796	1777.725
659.924	1793.838
660.052	1781.050
660.180	1772.800
660.308	1775.187
660.437	1771.000
660.565	1774.463
660.693	1764.937
660.821	1771.975
660.949	1774.350
661.077	1766.562
661.205	1764.862
661.333	1744.937
661.462	1778.213
661.590	1783.700
661.718	1759.300
661.846	1757.700
661.974	1766.412
662.102	1747.588
662.230	1759.200
662.358	1751.750
662.487	1751.200
662.615	1742.625
662.743	1767.737
662.871	1767.187
662.999	1746.325
663.127	1730.775
663.255	1749.675
663.383	1744.787
663.512	1743.250
663.640	1754.963
663.768	1738.025
663.896	1753.763
664.024	1733.062
664.152	1742.062
664.280	1742.812
664.408	1736.437
664.537	1742.150
664.665	1725.625
664.793	1723.950
664.921	1714.937
665.049	1731.787
665.177	1749.037
665.305	1726.750
665.433	1727.037
665.562	1724.675
665.690	1725.200
665.818	1738.325
665.946	1731.763
666.074	1725.125
666.202	1721.075
666.330	1708.525
666.458	1714.425
666.587	1714.662
666.715	1721.388
666.843	1714.050
666.971	1712.750
667.099	1712.612
667.227	1718.963
667.355	1711.650
667.483	1699.525
667.612	1704.400
667.740	1708.625
667.868	1724.812
667.996	1704.013
668.124	1710.350
668.252	1723.525
668.380	1706.312
668.508	1715.325
668.637	1696.513
668.765	1704.388
668.893	1700.513
669.021	1704.088
669.149	1698.800
669.277	1678.225
669.405	1694.862
669.533	1706.388
669.662	1690.975
669.790	1687.062
669.918	1700.787
670.046	1691.963
670.174	1677.375
670.302	1682.013
670.430	1678.138
670.558	1678.662
670.687	1684.800
670.815	1670.125
670.943	1669.838
671.071	1662.950
671.199	1692.800
671.327	1675.000
671.455	1669.062
671.583	1659.513
671.712	1651.338
671.840	1659.513
671.968	1642.713
672.096	1652.062
672.224	1650.400
672.352	1640.612
672.480	1651.463
672.608	1642.300
672.737	1642.075
672.865	1628.437
672.993	1640.912
673.121	1629.588
673.249	1632.550
673.377	1621.900
673.505	1644.000
673.633	1611.925
673.762	1606.588
673.890	1621.237
674.018	1625.338
674.146	1626.400
674.274	1622.675
674.402	1618.425
674.530	1624.987
674.658	1605.600
674.787	1600.888
674.915	1595.450
675.043	1598.838
675.171	1582.112
675.299	1597.312
675.427	1586.925
675.555	1590.925
675.683	1594.763
675.812	1572.662
675.940	1567.650
676.068	1590.950
676.196	1577.112
676.324	1570.025
676.452	1573.787
676.580	1554.362
676.708	1560.787
676.837	1577.062
676.965	1549.975
677.093	1556.862
677.221	1547.162
677.349	1532.162
677.477	1542.675
677.605	1521.612
677.733	1545.300
677.862	1526.338
677.990	1538.725
678.118	1537.300
678.246	1504.963
678.374	1511.950
678.502	1516.787
678.630	1502.112
678.758	1521.125
678.887	1505.138
679.015	1508.263
679.143	1491.500
679.271	1509.675
679.399	1495.500
679.527	1491.112
679.655	1485.200
679.783	1497.213
679.912	1488.437
680.040	1496.112
680.168	1487.713
680.296	1476.513
680.424	1480.350
680.552	1481.575
680.680	1482.513
680.808	1473.200
680.937	1462.862
681.065	1470.187
681.193	1471.088
681.321	1483.088
681.449	1467.888
681.577	1470.187
681.705	1452.062
681.833	1447.437
681.962	1445.050
682.090	1456.987
682.218	1458.925
682.346	1450.338
682.474	1459.437
682.602	1458.487
682.730	1442.237
682.858	1443.662
682.987	1446.900
683.115	1443.562
683.243	1436.975
683.371	1444.213
683.499	1424.138
683.627	1464.862
683.755	1439.487
683.883	1442.213
684.012	1428.513
684.140	1414.213
684.268	1428.513
684.396	1428.850
684.524	1425.525
684.652	1437.925
684.780	1441.900
684.908	1427.937
685.037	1418.987
685.165	1422.088
685.293	1422.775
685.421	1423.912
685.549	1399.237
685.677	1413.412
685.805	1411.500
685.933	1410.187
686.062	1396.338
686.190	1417.687
686.318	1429.862
686.446	1405.975
686.574	1401.062
686.702	1402.888
686.830	1419.400
686.958	1391.625
687.087	1423.463
687.215	1382.850
687.343	1387.275
687.471	1386.513
687.599	1390.325
687.727	1382.450
687.855	1395.513
687.983	1391.625
688.112	1384.213
688.240	1372.787
688.368	1396.550
688.496	1386.787
688.624	1378.237
688.752	1374.687
688.880	1386.737
689.008	1376.537
689.137	1389.888
689.265	1378.862
689.393	1355.525
689.521	1368.088
689.649	1377.662
689.777	1370.537
689.905	1373.763
690.033	1368.737
690.162	1354.937
690.290	1360.088
690.418	1352.175
690.546	1385.675
690.674	1371.263
690.802	1344.588
690.930	1343.275
691.058	1333.437
691.187	1334.787
691.315	1350.275
691.443	1340.100
691.571	1321.400
691.699	1323.963
691.827	1331.287
691.955	1325.175
692.083	1338.388
692.212	1312.338
692.340	1337.550
692.468	1326.600
692.596	1312.725
692.724	1317.987
692.852	1308.513
692.980	1309.275
693.108	1304.838
693.237	1289.525
693.365	1295.537
693.493	1289.388
693.621	1293.562
693.749	1286.987
693.877	1284.875
694.005	1275.475
694.133	1302.450
694.262	1276.963
694.390	1268.550
694.518	1269.537
694.646	1271.850
694.774	1266.338
694.902	1256.475
695.030	1273.187
695.158	1254.237
695.287	1269.275
695.415	1257.075
695.543	1254.138
695.671	1254.175
695.799	1250.625
695.927	1253.475
696.055	1248.925
696.183	1250.713
696.312	1236.375
696.440	1229.550
696.568	1235.975
696.696	1217.625
696.824	1228.350
696.952	1218.125
697.080	1220.800
697.208	1220.025
697.337	1216.187
697.465	1208.437
697.593	1212.513
697.721	1207.650
697.849	1211.900
697.977	1211.500
698.105	1214.463
698.233	1207.638
698.362	1186.675
698.490	1192.937
698.618	1205.138
698.746	1188.275
698.874	1206.237
699.002	1187.513
699.130	1183.612
699.258	1188.175
699.387	1172.463
699.515	1184.612
699.643	1187.787
699.771	1191.775
699.899	1174.588
700.027	1174.763
700.155	1162.900
700.283	1171.612
700.412	1160.775
700.540	1158.513
700.668	1153.638
700.796	1165.525
700.924	1145.487
701.052	1149.225
701.180	1152.513
701.308	1147.237
701.437	1131.900
701.565	1136.287
701.693	1136.875
701.821	1150.875
701.949	1153.125
702.077	1114.150
702.205	1132.838
702.333	1121.963
702.462	1127.475
702.590	1124.737
702.718	1123.875
702.846	1126.388
702.974	1133.950
703.102	1113.250
703.230	1108.737
703.358	1104.388
703.487	1101.775
703.615	1116.550
703.743	1089.787
703.871	1098.312
703.999	1083.950
704.127	1083.912
704.255	1083.412
704.383	1088.588
704.512	1081.350
704.640	1088.075
704.768	1068.225
704.896	1073.725
705.024	1069.162
705.152	1071.388
705.280	1068.612
705.408	1061.325
705.537	1067.963
705.665	1071.487
705.793	1060.350
705.921	1055.588
706.049	1059.862
706.177	1049.162
706.305	1049.612
706.433	1048.737
706.562	1038.675
706.690	1027.937
706.818	1028.875
706.946	1032.525
707.074	1030.775
707.202	1020.275
707.330	1026.400
707.458	1027.300
707.587	1008.212
707.715	1017.138
707.843	1016.025
707.971	1022.962
708.099	1018.200
708.227	1003.875
708.355	1005.000
708.483	1010.250
708.612	1002.100
708.740	999.400
708.868	1003.763
708.996	1005.550
709.124	1012.625
709.252	986.100
709.380	986.737
709.508	977.562
709.637	982.337
709.765	991.612
709.893	975.712
710.021	975.400
710.149	974.538
710.277	974.775
710.405	979.400
710.533	970.437
710.662	965.350
710.790	979.737
710.918	970.462
711.046	969.862
711.174	966.125
711.302	965.500
711.430	946.050
711.558	957.212
711.687	948.825
711.815	947.138
711.943	958.587
712.071	953.962
712.199	938.962
712.327	935.413
712.455	951.225
712.583	941.725
712.712	954.225
712.840	948.737
712.968	930.487
713.096	942.862
713.224	936.950
713.352	942.362
713.480	922.812
713.608	933.763
713.737	915.525
713.865	916.612
713.993	911.487
714.121	914.288
714.249	925.525
714.377	907.375
714.505	927.950
714.633	904.362
714.762	906.263
714.890	917.687
715.018	906.513
715.146	895.112
715.274	894.525
715.402	897.350
715.530	901.237
715.658	885.612
715.787	891.462
715.915	899.075
716.043	896.062
716.171	897.987
716.299	915.487
716.427	888.700
716.555	890.050
716.683	885.763
716.812	881.612
716.940	878.888
717.068	873.437
717.196	880.550
717.324	878.513
717.452	875.700
717.580	866.400
717.708	869.025
717.837	879.312
717.965	871.362
718.093	865.900
718.221	854.212
718.349	862.100
718.477	853.575
718.605	854.163
718.733	858.962
718.862	852.175
718.990	859.312
719.118	851.475
719.246	842.687
719.374	846.212
719.502	860.062
719.630	850.812
719.758	836.225
719.887	837.400
720.015	856.812
720.143	841.538
720.271	836.163
720.399	841.000
720.527	843.250
720.655	823.525
720.783	830.362
720.912	840.862
721.040	841.187
721.168	829.125
721.296	821.700
721.424	821.250
721.552	821.600
721.680	807.687
721.808	811.763
721.937	808.187
722.065	804.250
722.193	800.763
722.321	807.300
722.449	806.975
722.577	800.362
722.705	789.087
722.833	796.600
722.962	799.163
723.090	783.700
723.218	782.775
723.346	786.800
723.474	792.562
723.602	789.388
723.730	782.687
723.858	785.913
723.987	787.737
724.115	778.962
724.243	768.788
724.371	774.675
724.499	775.937
724.627	772.812
724.755	772.413
724.883	776.462
725.012	767.300
725.140	765.775
725.268	767.837
725.396	754.225
725.524	753.150
725.652	758.700
725.780	755.075
725.908	745.312
726.037	752.763
726.165	744.175
726.293	741.125
726.421	745.750
726.549	746.400
726.677	739.625
726.805	744.300
726.933	745.062
727.062	731.900
727.190	735.100
727.318	728.312
727.446	730.850
727.574	735.275
727.702	723.050
727.830	721.862
727.958	730.050
728.087	710.500
728.215	724.612
728.343	713.600
728.471	720.288
728.599	711.937
728.727	714.900
728.855	705.038
728.983	707.462
729.112	703.875
729.240	703.525
729.368	700.700
729.496	707.675
729.624	699.625
729.752	697.450
729.880	707.550
730.008	695.237
730.137	694.737
730.265	695.237
730.393	689.288
730.521	692.987
730.649	691.475
730.777	680.950
730.905	681.263
731.033	687.175
731.162	680.562
731.290	681.937
731.418	680.000
731.546	702.337
731.674	673.675
731.802	668.250
731.930	674.675
732.058	671.525
732.187	669.000
732.315	668.375
732.443	670.175
732.571	662.638
732.699	669.475
732.827	662.212
732.955	664.725
733.083	656.650
733.212	657.638
733.340	651.800
733.468	654.325
733.596	664.288
733.724	646.475
733.852	649.650
733.980	650.812
734.108	659.962
734.237	667.225
734.365	639.312
734.493	658.575
734.621	649.325
734.749	650.900
734.877	648.300
735.005	644.550
735.133	648.400
735.262	644.800
735.390	633.862
735.518	642.150
735.646	636.400
735.774	634.600
735.902	636.737
736.030	638.300
736.158	645.625
736.287	635.737
736.415	636.575
736.543	634.875
736.671	619.013
736.799	626.687
736.927	641.625
737.055	638.500
737.183	624.400
737.312	627.687
737.440	631.475
737.568	642.700
737.696	632.525
737.824	626.550
737.952	629.388
738.080	624.812
738.208	629.075
738.337	618.163
738.465	632.362
738.593	624.187
738.721	605.450
738.849	619.875
738.977	621.125
739.105	620.163
739.233	614.062
739.362	608.600
739.490	602.350
739.618	612.250
739.746	616.300
739.874	618.712
740.002	613.225
740.130	606.700
740.258	606.225
740.387	603.475
740.515	602.125
740.643	605.663
740.771	617.750
740.899	601.950
741.027	597.337
741.155	604.237
741.283	595.775
741.412	597.625
741.540	596.362
741.668	597.087
741.796	593.250
741.924	605.500
742.052	598.550
742.180	589.263
742.308	590.250
742.437	596.837
742.565	595.275
742.693	596.812
742.821	585.775
742.949	590.350
743.077	587.525
743.205	589.125
743.333	583.100
743.462	588.888
743.590	586.350
743.718	578.687
743.846	576.950
743.974	582.763
744.102	577.288
744.230	572.675
744.358	580.350
744.487	586.550
744.615	571.937
744.743	572.737
744.871	563.163
744.999	572.687
745.127	571.112
745.255	565.050
745.383	569.900
745.512	571.775
745.640	560.650
745.768	558.225
745.896	563.850
746.024	559.150
746.152	557.612
746.280	559.675
746.408	563.163
746.537	558.337
746.665	564.437
746.793	554.575
746.921	546.413
747.049	550.437
747.177	562.737
747.305	538.475
747.433	546.650
747.562	545.337
747.690	544.263
747.818	546.050
747.946	544.275
748.074	556.587
748.202	536.100
748.330	537.337
748.458	546.575
748.587	530.538
748.715	522.550
748.843	541.475
748.971	539.513
749.099	531.750
749.227	540.900
749.355	525.825
749.483	534.663
749.612	517.825
749.740	520.388
749.868	522.825
749.996	522.600
750.124	524.150
750.252	520.288
750.380	526.775
750.508	519.275
750.637	512.087
750.765	521.200
750.893	507.875
751.021	523.800
751.149	517.513
751.277	513.962
751.405	519.150
751.533	517.800
751.662	515.112
751.790	517.638
751.918	516.525
752.046	501.762
752.174	499.038
752.302	515.288
752.430	507.837
752.558	496.012
752.687	501.238
752.815	514.475
752.943	506.100
753.071	491.650
753.199	497.212
753.327	506.437
753.455	499.212
753.583	487.837
753.712	497.075
753.840	491.863
753.968	491.625
754.096	487.762
754.224	485.087
754.352	479.425
754.480	479.100
754.608	478.837
754.737	481.125
754.865	485.538
754.993	480.163
755.121	476.250
755.249	485.613
755.377	478.275
755.505	474.850
755.633	491.712
755.762	465.937
755.890	485.750
756.018	483.538
756.146	475.238
756.274	468.775
756.402	463.863
756.530	466.113
756.658	478.675
756.787	463.012
756.915	451.988
757.043	469.675
757.171	462.175
757.299	456.788
757.427	462.150
757.555	455.712
757.683	458.812
757.812	458.337
757.940	460.900
758.068	454.712
758.196	447.812
758.324	448.325
758.452	447.687
758.580	448.488
758.708	450.525
758.837	442.312
758.965	453.788
759.093	443.238
759.221	441.700
759.349	449.687
759.477	438.475
759.605	440.475
759.733	438.100
759.862	445.850
759.990	434.163
760.118	440.413
760.246	433.600
760.374	429.137
760.502	430.087
760.630	431.750
760.758	422.988
760.887	419.887
761.015	418.850
761.143	428.500
761.271	421.863
761.399	419.762
761.527	422.863
761.655	419.375
761.783	416.312
761.912	421.937
762.040	413.863
762.168	417.375
762.296	415.050
762.424	407.225
762.552	420.575
762.680	417.125
762.808	411.950
762.937	410.687
763.065	413.937
763.193	410.150
763.321	405.275
763.449	404.925
763.577	405.762
763.705	399.913
763.833	427.200
763.962	394.425
764.090	401.700
764.218	401.750
764.346	403.500
764.474	387.512
764.602	397.275
764.730	392.488
764.858	394.450
764.987	390.462
765.115	399.337
765.243	397.075
765.371	384.413
765.499	379.663
765.627	380.962
765.755	388.762
765.883	378.587
766.012	384.163
766.140	378.800
766.268	377.400
766.396	378.913
766.524	374.262
766.652	372.887
766.780	369.812
766.908	381.250
767.037	375.425
767.165	375.725
767.293	385.863
767.421	371.000
767.549	372.812
767.677	374.512
767.805	367.937
767.933	374.837
768.062	373.663
768.190	367.550
768.318	366.488
768.446	383.425
768.574	376.200
768.702	377.238
768.830	371.875
768.958	362.075
769.087	368.062
769.215	365.125
769.343	362.687
769.471	367.337
769.599	370.562
769.727	366.738
769.855	362.725
769.983	361.462
770.112	358.325
770.240	357.113
770.368	363.475
770.496	359.363
770.624	361.288
770.752	366.400
770.880	371.962
771.008	360.512
771.137	364.462
771.265	361.825
771.393	356.163
771.521	357.375
771.649	353.650
771.777	352.250
771.905	360.663
772.033	355.512
772.162	360.913
772.290	357.363
772.418	359.863
772.546	351.425
772.674	352.675
772.802	355.950
772.930	358.800
773.058	350.700
773.187	345.812
773.315	355.387
773.443	353.012
773.571	349.775
773.699	346.650
773.827	346.413
773.955	354.775
774.083	362.012
774.212	345.363
774.340	347.275
774.468	350.387
774.596	346.500
774.724	351.062
774.852	342.325
774.980	352.962
775.108	344.525
775.237	337.625
775.365	344.700
775.493	342.988
775.621	346.850
775.749	346.812
775.877	348.125
776.005	336.212
776.133	352.200
776.262	348.363
776.390	339.225
776.518	352.462
776.646	336.725
776.774	343.625
776.902	342.625
777.030	333.125
777.158	339.988
777.287	348.288
777.415	340.937
777.543	335.387
777.671	335.863
777.799	331.050
777.927	340.975
778.055	340.650
778.183	341.400
778.312	328.538
778.440	331.025
778.568	338.937
778.696	328.250
778.824	339.150
778.952	331.350
779.080	334.087
779.208	338.762
779.337	328.900
779.465	336.288
779.593	333.762
779.721	338.913
779.849	329.375
779.977	331.637
780.105	329.575
780.233	331.950
780.362	338.725
780.490	334.637
780.618	330.850
780.746	330.962
780.874	326.050
781.002	322.087
781.130	329.238
781.258	324.325
781.387	336.850
781.515	327.687
781.643	320.950
781.771	333.775
781.899	327.238
782.027	324.075
782.155	322.587
782.283	328.750
782.412	324.587
782.540	328.600
782.668	327.975
782.796	320.600
782.924	318.925
783.052	314.113
783.180	327.913
783.308	314.212
783.437	326.000
783.565	322.225
783.693	320.025
783.821	325.575
783.949	321.337
784.077	319.738
784.205	321.575
784.333	331.625
784.462	313.562
784.590	318.512
784.718	318.637
784.846	315.000
784.974	318.038
785.102	324.275
785.230	311.025
785.358	325.988
785.487	318.238
785.615	321.975
785.743	309.300
785.871	305.575
785.999	312.300
786.127	309.425
786.255	322.562
786.383	317.000
786.512	314.962
786.640	304.587
786.768	321.538
786.896	309.500
787.024	307.650
787.152	307.175
787.280	304.812
787.408	304.788
787.537	307.262
787.665	301.250
787.793	310.163
787.921	307.875
788.049	304.575
788.177	303.850
788.305	302.663
788.433	305.075
788.562	301.488
788.690	303.238
788.818	304.200
788.946	297.950
789.074	298.238
789.202	301.675
789.330	303.875
789.458	308.812
789.587	304.413
789.715	302.913
789.843	305.125
789.971	297.913
790.099	295.150
790.227	298.750
790.355	295.075
790.483	303.462
790.612	298.812
790.740	294.475
790.868	306.000
790.996	292.512
791.124	294.725
791.252	293.850
791.380	299.812
791.508	295.187
791.637	300.288
791.765	284.538
791.893	286.150
792.021	297.025
792.149	291.550
792.277	289.587
792.405	292.962
792.533	301.187
792.662	283.100
792.790	285.300
792.918	295.288
793.046	283.750
793.174	289.812
793.302	288.562
793.430	284.625
793.558	294.238
793.687	285.413
793.815	285.550
793.943	286.225
794.071	284.400
794.199	277.637
794.327	279.062
794.455	299.675
794.583	297.475
794.712	282.788
794.840	279.500
794.968	278.275
795.096	286.363
795.224	277.650
795.352	272.387
795.480	283.200
795.608	277.775
795.737	278.975
795.865	272.812
795.993	271.413
796.121	273.650
796.249	273.325
796.377	275.075
796.505	277.650
796.633	269.962
796.762	268.587
796.890	281.962
797.018	274.575
797.146	268.925
797.274	258.350
797.402	269.925
797.530	267.425
797.658	263.113
797.787	270.075
797.915	264.850
798.043	271.462
798.171	263.238
798.299	267.425
798.427	264.225
798.555	270.100
798.683	262.725
798.812	266.250
798.940	261.262
799.068	265.488
799.196	266.150
799.324	256.212
799.452	266.225
799.580	261.262
799.708	268.312
799.837	255.912
799.965	254.100
800.093	256.562
800.221	258.312
800.349	260.788
800.477	257.725
800.605	256.650
800.733	257.100
800.862	255.363
800.990	267.075
801.118	258.825
801.246	252.137
801.374	253.650
801.502	252.975
801.630	245.637
801.758	244.675
801.887	256.000
802.015	245.700
802.143	247.575
802.271	246.887
802.399	248.625
802.527	250.187
802.655	252.588
802.783	258.050
802.912	247.762
803.040	245.387
803.168	244.050
803.296	240.650
803.424	249.375
803.552	243.812
803.680	241.325
803.808	242.488
803.937	244.213
804.065	242.500
804.193	241.025
804.321	251.350
804.449	241.075
804.577	240.800
804.705	238.537
804.833	247.037
804.962	239.525
805.090	236.137
805.218	240.963
805.346	236.738
805.474	233.262
805.602	250.500
805.730	235.762
805.858	232.275
805.987	237.975
806.115	240.750
806.243	236.100
806.371	235.350
806.499	233.025
806.627	227.575
806.755	236.425
806.883	229.350
807.012	228.137
807.140	234.363
807.268	229.325
807.396	233.812
807.524	227.675
807.652	226.488
807.780	243.725
807.908	229.850
808.037	235.950
808.165	231.037
808.293	228.275
808.421	236.262
808.549	222.425
808.677	220.162
808.805	233.463
808.933	224.050
809.062	222.250
809.190	241.863
809.318	223.100
809.446	218.588
809.574	226.475
809.702	220.187
809.830	218.500
809.958	222.338
810.087	224.450
810.215	228.825
810.343	230.738
810.471	220.450
810.599	213.162
810.727	215.600
810.855	210.437
810.983	220.925
811.112	218.312
811.240	215.475
811.368	217.812
811.496	223.875
811.624	217.825
811.752	211.338
811.880	213.912
812.008	209.100
812.137	213.950
812.265	212.550
812.393	214.800
812.521	213.525
812.649	217.562
812.777	214.625
812.905	217.050
813.033	208.613
813.162	210.500
813.290	207.900
813.418	214.863
813.546	213.000
813.674	205.575
813.802	211.338
813.930	204.037
814.058	198.175
814.187	208.550
814.315	210.062
814.443	205.200
814.571	202.463
814.699	215.000
814.827	207.375
814.955	203.900
815.083	204.062
815.212	207.525
815.340	201.125
815.468	203.300
815.596	202.812
815.724	200.562
815.852	209.037
815.980	196.325
816.108	205.537
816.237	199.800
816.365	199.037
816.493	205.037
816.621	193.800
816.749	195.863
816.877	195.012
817.005	200.588
817.133	195.200
817.262	194.012
817.390	204.363
817.518	189.225
817.646	195.463
817.774	193.350
817.902	196.625
818.030	193.738
818.158	197.537
818.287	198.213
818.415	186.088
818.543	188.062
818.671	196.137
818.799	189.062
818.927	199.325
819.055	190.488
819.183	192.025
819.312	191.937
819.440	192.412
819.568	186.850
819.696	197.662
819.824	193.037
819.952	183.012
820.080	187.500
820.208	187.975
820.337	182.775
820.465	194.213
820.593	184.363
820.721	187.137
820.849	184.613
820.977	180.887
821.105	187.850
821.233	181.500
821.362	190.150
821.490	180.113
821.618	180.738
821.746	180.525
821.874	180.238
822.002	183.588
822.130	181.075
822.258	182.200
822.387	184.062
822.515	181.850
822.643	184.350
822.771	179.713
822.899	176.250
823.027	186.838
823.155	178.338
823.283	181.363
823.412	183.700
823.540	179.400
823.668	194.550
823.796	176.825
823.924	182.238
824.052	183.875
824.180	173.838
824.308	180.150
824.437	179.450
824.565	177.475
824.693	179.412
824.821	177.075
824.949	178.300
825.077	175.725
825.205	181.187
825.333	175.750
825.462	180.887
825.590	170.775
825.718	174.525
825.846	180.187
825.974	181.463
826.102	177.213
826.230	174.963
826.358	179.988
826.487	174.463
826.615	180.800
826.743	169.463
826.871	178.200
826.999	178.137
827.127	173.050
827.255	177.213
827.383	165.925
827.512	176.850
827.640	174.975
827.768	167.463
827.896	168.437
828.024	167.550
828.152	169.687
828.280	168.012
828.408	166.988
828.537	169.475
828.665	164.588
828.793	166.512
828.921	164.025
829.049	168.762
829.177	167.662
829.305	161.387
829.433	164.412
829.562	165.387
829.690	163.700
829.818	168.988
829.946	166.738
830.074	159.312
830.202	164.412
830.330	165.700
830.458	174.787
830.587	158.838
830.715	158.088
830.843	160.375
830.971	162.437
831.099	161.275
831.227	158.662
831.355	162.050
831.483	160.950
831.612	168.062
831.740	161.150
831.868	172.637
831.996	155.875
832.124	160.213
832.252	151.475
832.380	162.575
832.508	168.387
832.637	160.912
832.765	157.162
832.893	163.387
833.021	159.175
833.149	157.463
833.277	155.900
833.405	151.425
833.533	155.575
833.662	156.488
833.790	156.475
833.918	156.775
834.046	161.287
834.174	161.162
834.302	156.850
834.430	153.000
834.558	164.238
834.687	158.150
834.815	152.575
834.943	156.912
835.071	152.887
835.199	153.912
835.327	158.338
835.455	146.400
835.583	162.113
835.712	150.950
835.840	152.738
835.968	152.725
836.096	161.175
836.224	156.262
836.352	151.875
836.480	156.200
836.608	158.213
836.737	146.000
836.865	147.162
836.993	146.975
837.121	148.050
837.249	149.713
837.377	156.925
837.505	150.037
837.633	149.463
837.762	145.162
837.890	154.075
838.018	157.475
838.146	158.775
838.274	152.213
838.402	156.762
838.530	145.075
838.658	140.338
838.787	150.613
838.915	145.925
839.043	149.387
839.171	162.137
839.299	147.025
839.427	148.075
839.555	160.400
839.683	152.338
839.812	143.575
839.940	149.213
840.068	146.175
840.196	148.963
840.324	145.475
840.452	156.113
840.580	147.812
840.708	146.963
840.837	150.900
840.965	147.050
841.093	150.762
841.221	153.012
841.349	144.625
841.477	146.775
841.605	148.250
841.733	141.800
841.862	144.025
841.990	152.113
842.118	143.113
842.246	136.250
842.374	139.500
842.502	140.387
842.630	143.225
842.758	150.350
842.887	142.963
843.015	142.887
843.143	148.812
843.271	143.450
843.399	146.850
843.527	144.637
843.655	141.363
843.783	143.113
843.912	140.500
844.040	149.075
844.168	149.600
844.296	144.500
844.424	141.550
844.552	143.537
844.680	144.550
844.808	148.600
844.937	140.525
845.065	140.100
845.193	144.187
845.321	141.425
845.449	136.387
845.577	140.613
845.705	136.162
845.833	143.088
845.962	137.637
846.090	136.475
846.218	144.775
846.346	140.338
846.474	139.662
846.602	133.600
846.730	142.475
846.858	140.137
846.987	139.325
847.115	135.450
847.243	142.575
847.371	146.400
847.499	134.000
847.627	135.812
847.755	129.800
847.883	136.262
848.012	141.312
848.140	136.588
848.268	140.062
848.396	133.000
848.524	140.238
848.652	131.325
848.780	133.613
848.908	140.012
849.037	135.162
849.165	136.338
849.293	133.713
849.421	139.850
849.549	134.037
849.677	133.213
849.805	140.675
849.933	139.738
850.062	136.787
850.190	132.625
850.318	134.137
850.446	133.912
850.574	131.925
850.702	130.300
850.830	132.088
850.958	134.488
851.087	132.500
851.215	139.037
851.343	129.300
851.471	133.075
851.599	133.387
851.727	134.350
851.855	132.325
851.983	139.375
852.112	131.225
852.240	134.537
852.368	130.963
852.496	128.500
852.624	128.325
852.752	130.975
852.880	128.062
853.008	131.713
853.137	145.525
853.265	129.475
853.393	133.550
853.521	132.625
853.649	133.312
853.777	126.700
853.905	130.762
854.033	139.312
854.162	138.600
854.290	129.125
854.418	129.588
854.546	127.250
854.674	149.387
854.802	127.812
854.930	127.588
855.058	123.925
855.187	123.450
855.315	127.862
855.443	123.112
855.571	123.537
855.699	126.850
855.827	127.350
855.955	127.713
856.083	125.825
856.212	134.700
856.340	126.675
856.468	134.100
856.596	130.150
856.724	128.863
856.852	127.862
856.980	123.600
857.108	127.412
857.237	127.138
857.365	127.575
857.493	128.312
857.621	129.363
857.749	125.338
857.877	128.050
858.005	133.463
858.133	130.700
858.262	124.513
858.390	122.300
858.518	121.500
858.646	124.437
858.774	123.662
858.902	124.562
859.030	125.112
859.158	121.513
859.287	127.825
859.415	126.650
859.543	124.638
859.671	125.138
859.799	129.200
859.927	126.750
860.055	125.888
860.183	123.750
860.312	127.025
860.440	124.025
860.568	124.513
860.696	122.650
860.824	129.662
860.952	118.050
861.080	121.825
861.208	124.812
861.337	126.138
861.465	127.775
861.593	129.463
861.721	123.112
861.849	125.275
861.977	121.112
862.105	122.250
862.233	125.200
862.362	124.900
862.490	123.537
862.618	121.138
862.746	119.912
862.874	124.100
863.002	119.300
863.130	125.862
863.258	122.062
863.387	124.200
863.515	122.100
863.643	115.987
863.771	119.175
863.899	121.550
864.027	119.937
864.155	116.975
864.283	120.700
864.412	122.888
864.540	119.487
864.668	117.013
864.796	124.100
864.924	118.575
865.052	122.775
865.180	117.250
865.308	114.075
865.437	119.088
865.565	120.550
865.693	125.312
865.821	117.213
865.949	125.600
866.077	120.825
866.205	119.213
866.333	120.338
866.462	117.475
866.590	128.175
866.718	123.525
866.846	118.237
866.974	123.412
867.102	123.525
867.230	124.088
867.358	120.750
867.487	121.437
867.615	118.662
867.743	118.450
867.871	121.388
867.999	119.338
868.127	120.138
868.255	126.675
868.383	123.612
868.512	114.725
868.640	117.662
868.768	116.287
868.896	117.862
869.024	122.562
869.152	128.338
869.280	120.975
869.408	122.200
869.537	115.963
869.665	129.625
869.793	116.612
869.921	121.662
870.049	119.138
870.177	118.362
870.305	128.588
870.433	118.912
870.562	118.925
870.690	116.025
870.818	112.987
870.946	112.725
871.074	121.088
871.202	118.213
871.330	117.862
871.458	115.475
871.587	115.550
871.715	118.963
871.843	116.450
871.971	118.112
872.099	117.037
872.227	118.725
872.355	119.987
872.483	123.050
872.612	119.112
872.740	119.475
872.868	112.187
872.996	115.500
873.124	116.763
873.252	119.025
873.380	112.787
873.508	113.237
873.637	115.075
873.765	117.437
873.893	118.050
874.021	116.838
874.149	114.750
874.277	118.425
874.405	121.850
874.533	117.325
874.662	332.538
874.790	116.287
874.918	123.362
875.046	118.588
875.174	115.687
875.302	115.775
875.430	114.400
875.558	116.750
875.687	119.912
875.815	114.900
875.943	115.550
876.071	119.500
876.199	115.213
876.327	126.375
876.455	114.388
876.583	118.775
876.712	119.375
876.840	117.325
876.968	114.650
877.096	114.125
877.224	113.150
877.352	120.900
877.480	114.588
877.608	117.275
877.737	113.838
877.865	113.537
877.993	117.812
878.121	112.225
878.249	114.450
878.377	117.437
878.505	110.888
878.633	114.987
878.762	113.487
878.890	116.162
879.018	121.013
879.146	117.625
879.274	111.537
879.402	117.112
879.530	119.312
879.658	117.275
879.787	113.050
879.915	117.300
880.043	112.775
880.171	114.275
880.299	112.187
880.427	112.900
880.555	113.638
880.683	116.562
880.812	113.025
880.940	118.537
881.068	111.800
881.196	109.638
881.324	113.575
881.452	111.888
881.580	114.912
881.708	116.638
881.837	115.588
881.965	112.875
882.093	114.088
882.221	110.912
882.349	119.838
882.477	118.400
882.605	121.625
882.733	116.713
882.862	113.375
882.990	110.225
883.118	113.600
883.246	114.825
883.374	115.875
883.502	116.062
883.630	112.475
883.758	113.875
883.887	109.550
884.015	109.600
884.143	111.237
884.271	111.175
884.399	114.125
884.527	112.138
884.655	109.475
884.783	118.325
884.912	114.463
885.040	109.475
885.168	110.050
885.296	108.963
885.424	113.237
885.552	115.150
885.680	112.287
885.808	112.388
885.937	118.437
886.065	116.150
886.193	111.850
886.321	110.338
886.449	110.162
886.577	115.625
886.705	111.287
886.833	111.237
886.962	109.675
887.090	113.525
887.218	112.825
887.346	112.537
887.474	118.475
887.602	115.200
887.730	113.638
887.858	118.900
887.987	112.125
888.115	117.638
888.243	116.500
888.371	116.125
888.499	115.850
888.627	113.013
888.755	110.350
888.883	110.950
889.012	111.513
889.140	111.662
889.268	122.138
889.396	125.350
889.524	111.275
889.652	111.662
889.780	110.912
889.908	110.513
890.037	112.612
890.165	111.600
890.293	111.513
890.421	122.362
890.549	112.875
890.677	113.775
890.805	109.550
890.933	114.463
891.062	111.225
891.190	115.325
891.318	116.037
891.446	115.025
891.574	113.862
891.702	110.950
891.830	111.050
891.958	116.850
892.087	118.925
892.215	110.650
892.343	109.338
892.471	112.487
892.599	115.062
892.727	117.812
892.855	112.450
892.983	112.838
893.112	112.575
893.240	113.625
893.368	114.100
893.496	115.225
893.624	116.687
893.752	126.800
893.880	113.775
894.008	112.088
894.137	115.375
894.265	117.187
894.393	115.263
894.521	111.263
894.649	111.138
894.777	108.975
894.905	112.075
895.033	119.150
895.162	117.062
895.290	122.062
895.418	115.250
895.546	116.537
895.674	115.662
895.802	110.500
895.930	109.737
896.058	106.500
896.187	107.025
896.315	111.338
896.443	115.775
896.571	116.850
896.699	114.425
896.827	115.150
896.955	112.088
897.083	111.787
897.212	110.088
897.340	107.125
897.468	110.475
897.596	113.112
897.724	111.537
897.852	117.937
897.980	111.700
898.108	108.537
898.237	108.562
898.365	106.700
898.493	109.737
898.621	111.275
898.749	108.112
898.877	110.888
899.005	108.050
899.133	110.263
899.262	108.850
899.390	110.987
899.518	113.025
899.646	111.312
899.774	116.675
899.902	122.437
900.030	116.963
900.158	108.525
900.287	113.737
900.415	110.112
900.543	110.263
900.671	116.825
900.799	112.875
900.927	111.662
901.055	109.612
901.183	112.800
901.312	112.250
901.440	114.763
901.568	114.138
901.696	110.100
901.824	111.937
901.952	117.088
902.080	112.100
902.208	112.000
902.337	112.713
902.465	113.812
902.593	114.375
902.721	109.100
902.849	113.625
902.977	112.412
903.105	114.862
903.233	122.000
903.362	112.638
903.490	111.838
903.618	110.600
903.746	117.450
903.874	114.450
904.002	109.875
904.130	115.263
904.258	113.112
904.387	111.662
904.515	107.237
904.643	108.612
904.771	109.700
904.899	113.362
905.027	111.062
905.155	110.287
905.283	111.213
905.412	115.925
905.540	112.912
905.668	109.362
905.796	106.287
905.924	108.487
906.052	113.588
906.180	113.088
906.308	112.225
906.437	116.625
906.565	117.237
906.693	112.725
906.821	108.588
906.949	109.750
907.077	114.187
907.205	115.112
907.333	114.263
907.462	112.037
907.590	111.775
907.718	113.687
907.846	113.200
907.974	113.350
908.102	114.800
908.230	114.725
908.358	119.500
908.487	115.162
908.615	115.275
908.743	114.500
908.871	124.800
908.999	114.162
909.127	113.437
909.255	109.525
909.383	109.825
909.512	114.463
909.640	111.800
909.768	116.162
909.896	122.812
910.024	115.650
910.152	116.350
910.280	120.162
910.408	115.612
910.537	122.725
910.665	118.437
910.793	115.075
910.921	119.737
911.049	115.475
911.177	113.625
911.305	116.562
911.433	114.875
911.562	114.713
911.690	112.200
911.818	123.662
911.946	125.888
912.074	116.937
912.202	115.513
912.330	112.200
912.458	114.713
912.587	117.800
912.715	115.725
912.843	115.888
912.971	123.713
913.099	121.187
913.227	117.687
913.355	117.412
913.483	113.888
913.612	114.963
913.740	139.537
913.868	119.775
