sample2_PP_at_750.00nm_cut_at_1008.00Y_02.dat
15.05.2023
10:57:01
cut middle at Y: 1008.00
top cursor: 1048 down cursor: 968 mean of: 80 lines , 2560 datapoints
wavelength(nm)	intensity[arb. units]
585.996	1188.888
586.124	1158.787
586.252	1155.812
586.380	1148.463
586.508	1160.750
586.637	1164.900
586.765	1152.638
586.893	1165.638
587.021	1172.287
587.149	1185.900
587.277	1184.638
587.405	1191.975
587.533	1178.612
587.662	1191.812
587.790	1202.750
587.918	1205.412
588.046	1204.162
588.174	1192.425
588.302	1215.125
588.430	1197.138
588.558	1205.325
588.687	1201.263
588.815	1231.638
588.943	1214.850
589.071	1216.862
589.199	1225.138
589.327	1214.975
589.455	1209.713
589.583	1220.713
589.712	1229.375
589.840	1235.912
589.968	1233.375
590.096	1237.375
590.224	1238.675
590.352	1233.500
590.480	1233.050
590.608	1242.612
590.737	1236.025
590.865	1247.437
590.993	1244.138
591.121	1252.750
591.249	1258.463
591.377	1250.287
591.505	1240.987
591.633	1254.500
591.762	1268.987
591.890	1260.325
592.018	1275.100
592.146	1274.325
592.274	1289.888
592.402	1273.537
592.530	1279.687
592.658	1292.838
592.787	1279.487
592.915	1278.225
593.043	1289.650
593.171	1301.037
593.299	1313.062
593.427	1297.687
593.555	1307.362
593.683	1302.463
593.812	1320.612
593.940	1316.713
594.068	1315.412
594.196	1362.862
594.324	1317.062
594.452	1347.463
594.580	1356.650
594.708	1337.850
594.837	1355.050
594.965	1361.187
595.093	1384.388
595.221	1367.675
595.349	1387.638
595.477	1380.162
595.605	1387.162
595.733	1425.775
595.862	1392.125
595.990	1396.500
596.118	1414.963
596.246	1412.675
596.374	1433.100
596.502	1452.187
596.630	1439.263
596.758	1445.763
596.887	1454.825
597.015	1463.713
597.143	1455.763
597.271	1465.175
597.399	1470.763
597.527	1475.400
597.655	1475.750
597.783	1485.650
597.912	1472.075
598.040	1486.850
598.168	1491.763
598.296	1492.213
598.424	1494.050
598.552	1497.350
598.680	1492.513
598.808	1492.187
598.937	1516.775
599.065	1509.838
599.193	1518.312
599.321	1502.213
599.449	1530.150
599.577	1510.437
599.705	1510.037
599.833	1509.463
599.962	1517.450
600.090	1520.750
600.218	1528.100
600.346	1525.062
600.474	1540.987
600.602	1537.588
600.730	1537.138
600.858	1554.412
600.987	1557.275
601.115	1560.000
601.243	1541.162
601.371	1571.437
601.499	1567.513
601.627	1569.425
601.755	1580.325
601.883	1589.088
602.012	1612.125
602.140	1595.838
602.268	1618.325
602.396	1618.412
602.524	1623.450
602.652	1642.975
602.780	1644.237
602.908	1657.575
603.037	1666.037
603.165	1673.700
603.293	1685.912
603.421	1687.412
603.549	1701.437
603.677	1724.775
603.805	1701.862
603.933	1727.312
604.062	1736.200
604.190	1761.575
604.318	1752.013
604.446	1779.825
604.574	1784.225
604.702	1795.400
604.830	1800.975
604.958	1816.463
605.087	1847.763
605.215	1843.050
605.343	1856.638
605.471	1861.575
605.599	1873.162
605.727	1880.612
605.855	1904.013
605.983	1890.463
606.112	1929.888
606.240	1921.025
606.368	1929.650
606.496	1936.350
606.624	1936.463
606.752	1952.338
606.880	1961.187
607.008	1985.862
607.137	1994.775
607.265	1984.475
607.393	2019.537
607.521	1999.375
607.649	2001.225
607.777	2001.987
607.905	2018.612
608.033	2022.775
608.162	2026.475
608.290	2030.425
608.418	2051.850
608.546	2068.037
608.674	2071.000
608.802	2064.062
608.930	2072.175
609.058	2064.025
609.187	2083.475
609.315	2085.275
609.443	2085.912
609.571	2110.625
609.699	2097.725
609.827	2101.925
609.955	2108.662
610.083	2123.537
610.212	2113.925
610.340	2123.262
610.468	2139.537
610.596	2151.900
610.724	2140.050
610.852	2151.225
610.980	2146.775
611.108	2166.937
611.237	2159.350
611.365	2171.012
611.493	2163.387
611.621	2178.187
611.749	2194.613
611.877	2210.700
612.005	2218.137
612.133	2217.025
612.262	2199.850
612.390	2229.213
612.518	2243.700
612.646	2263.113
612.774	2248.800
612.902	2262.937
613.030	2257.937
613.158	2309.100
613.287	2319.675
613.415	2297.100
613.543	2300.950
613.671	2305.512
613.799	2329.287
613.927	2328.850
614.055	2356.875
614.183	2426.912
614.312	2344.262
614.440	2433.887
614.568	2372.450
614.696	2390.525
614.824	2493.213
614.952	2414.713
615.080	2416.537
615.208	2466.162
615.337	2451.287
615.465	2475.562
615.593	2491.887
615.721	2518.525
615.849	2520.012
615.977	2538.363
616.105	2564.300
616.233	2533.625
616.362	2604.437
616.490	2548.050
616.618	2558.700
616.746	2611.312
616.874	2640.812
617.002	2621.200
617.130	2672.488
617.258	2739.912
617.387	2649.775
617.515	2634.875
617.643	2665.900
617.771	2723.200
617.899	2735.200
618.027	2706.963
618.155	2797.963
618.283	2704.338
618.412	2754.113
618.540	2816.175
618.668	2784.075
618.796	2783.500
618.924	2890.162
619.052	2801.975
619.180	2790.875
619.308	2812.363
619.437	2854.088
619.565	2834.863
619.693	2825.762
619.821	2857.650
619.949	2854.838
620.077	2912.900
620.205	2917.725
620.333	2928.338
620.462	2941.387
620.590	2989.312
620.718	2906.912
620.846	3012.025
620.974	3020.250
621.102	2969.162
621.230	2928.787
621.358	3067.312
621.487	2982.963
621.615	2993.475
621.743	3030.912
621.871	3027.575
621.999	3110.475
622.127	3046.512
622.255	3048.425
622.383	3054.025
622.512	3062.338
622.640	3201.338
622.768	3051.650
622.896	3079.600
623.024	3080.375
623.152	3171.512
623.280	3143.312
623.408	3108.300
623.537	3136.600
623.665	3122.175
623.793	3182.350
623.921	3128.187
624.049	3150.412
624.177	3156.287
624.305	3196.250
624.433	3213.175
624.562	3209.775
624.690	3234.937
624.818	3273.387
624.946	3395.213
625.074	3283.725
625.202	3234.787
625.330	3231.463
625.458	3304.850
625.587	3273.287
625.715	3330.900
625.843	3422.588
625.971	3326.912
626.099	3296.062
626.227	3328.412
626.355	3307.713
626.483	3402.137
626.612	3307.725
626.740	3337.075
626.868	3393.800
626.996	3354.162
627.124	3361.437
627.252	3375.375
627.380	3426.150
627.508	3416.175
627.637	3391.400
627.765	3421.838
627.893	3450.475
628.021	3426.025
628.149	3470.412
628.277	3485.400
628.405	3545.937
628.533	3468.488
628.662	3541.500
628.790	3496.600
628.918	3513.575
629.046	3551.700
629.174	3536.137
629.302	3671.312
629.430	3558.850
629.558	3583.350
629.687	3619.137
629.815	3605.575
629.943	3661.550
630.071	3656.463
630.199	3662.325
630.327	3656.963
630.455	3661.863
630.583	3752.825
630.712	3718.800
630.840	3721.387
630.968	3780.588
631.096	3745.650
631.224	3746.275
631.352	3764.437
631.480	3814.213
631.608	3783.450
631.737	3910.050
631.865	3966.150
631.993	3840.925
632.121	3951.575
632.249	3929.238
632.377	3930.113
632.505	3922.687
632.633	3863.125
632.762	3939.762
632.890	4025.137
633.018	3929.687
633.146	3974.950
633.274	4016.437
633.402	3986.088
633.530	3967.387
633.658	4120.212
633.787	3972.975
633.915	4054.600
634.043	4006.838
634.171	4023.588
634.299	4057.238
634.427	4136.988
634.555	4091.662
634.683	4057.338
634.812	4044.575
634.940	4072.850
635.068	4052.162
635.196	4072.562
635.324	4094.088
635.452	4168.663
635.580	4085.050
635.708	4088.113
635.837	4132.187
635.965	4142.325
636.093	4115.613
636.221	4107.163
636.349	4190.387
636.477	4071.775
636.605	4266.538
636.733	4077.113
636.862	4108.750
636.990	4122.300
637.118	4190.250
637.246	4164.750
637.374	4117.500
637.502	4129.937
637.630	4096.812
637.758	4137.762
637.887	4097.600
638.015	4110.600
638.143	4120.300
638.271	4115.050
638.399	4095.738
638.527	4116.887
638.655	4126.675
638.783	4257.113
638.912	4141.913
639.040	4124.012
639.168	4173.100
639.296	4142.150
639.424	4251.850
639.552	4099.913
639.680	4145.587
639.808	4184.062
639.937	4105.575
640.065	4117.525
640.193	4213.200
640.321	4120.550
640.449	4189.812
640.577	4231.087
640.705	4133.325
640.833	4275.613
640.962	4150.337
641.090	4156.175
641.218	4121.850
641.346	4169.762
641.474	4208.387
641.602	4157.062
641.730	4154.950
641.858	4187.550
641.987	4213.312
642.115	4174.238
642.243	4233.175
642.371	4226.350
642.499	4210.825
642.627	4246.887
642.755	4272.337
642.883	4292.225
643.012	4246.062
643.140	4200.913
643.268	4254.413
643.396	4262.850
643.524	4377.925
643.652	4247.962
643.780	4252.700
643.908	4251.387
644.037	4403.125
644.165	4272.000
644.293	4289.450
644.421	4268.113
644.549	4347.500
644.677	4284.650
644.805	4336.812
644.933	4275.613
645.062	4291.100
645.190	4316.913
645.318	4400.250
645.446	4330.375
645.574	4352.937
645.702	4315.000
645.830	4489.312
645.958	4282.762
646.087	4505.675
646.215	4341.038
646.343	4493.500
646.471	4423.863
646.599	4403.150
646.727	4345.550
646.855	4365.025
646.983	4370.337
647.112	4336.625
647.240	4521.775
647.368	4362.550
647.496	4412.650
647.624	4317.700
647.752	4327.312
647.880	4336.700
648.008	4345.937
648.137	4329.525
648.265	4326.800
648.393	4323.450
648.521	4353.275
648.649	4352.450
648.777	4383.587
648.905	4300.700
649.033	4338.025
649.162	4353.125
649.290	4335.863
649.418	4346.512
649.546	4349.525
649.674	4399.712
649.802	4323.613
649.930	4447.387
650.058	4271.525
650.187	4306.525
650.315	4260.075
650.443	4346.125
650.571	4267.750
650.699	4253.887
650.827	4235.500
650.955	4284.488
651.083	4279.312
651.212	4329.750
651.340	4315.600
651.468	4245.837
651.596	4218.200
651.724	4208.437
651.852	4215.462
651.980	4185.038
652.108	4295.413
652.237	4239.913
652.365	4271.325
652.493	4157.475
652.621	4172.087
652.749	4243.200
652.877	4146.413
653.005	4180.387
653.133	4155.750
653.262	4202.512
653.390	4113.062
653.518	4212.113
653.646	4144.850
653.774	4310.725
653.902	4152.062
654.030	4075.312
654.158	4092.850
654.287	4084.162
654.415	4110.025
654.543	4089.950
654.671	4148.462
654.799	4093.025
654.927	4045.937
655.055	4036.613
655.183	4069.062
655.312	4047.287
655.440	4069.100
655.568	3999.700
655.696	4096.425
655.824	4115.663
655.952	4027.863
656.080	3973.213
656.208	4130.788
656.337	3992.137
656.465	3992.012
656.593	4009.025
656.721	3981.562
656.849	4011.550
656.977	3950.738
657.105	3956.037
657.233	3914.075
657.362	3921.450
657.490	3894.537
657.618	3921.537
657.746	3914.300
657.874	3880.262
658.002	3831.762
658.130	3893.412
658.258	3826.762
658.387	3876.425
658.515	3824.537
658.643	3875.062
658.771	3829.613
658.899	3838.775
659.027	3828.850
659.155	3826.600
659.283	3968.450
659.412	3827.775
659.540	3902.637
659.668	3803.875
659.796	3817.575
659.924	3842.262
660.052	3775.275
660.180	3791.050
660.308	3780.575
660.437	3757.287
660.565	3748.963
660.693	3732.400
660.821	3719.150
660.949	3718.700
661.077	3720.488
661.205	3718.162
661.333	3697.963
661.462	3785.812
661.590	3720.775
661.718	3853.125
661.846	3758.463
661.974	3819.912
662.102	3699.363
662.230	3703.950
662.358	3666.912
662.487	3660.550
662.615	3631.187
662.743	3615.213
662.871	3621.488
662.999	3600.450
663.127	3595.437
663.255	3717.800
663.383	3695.250
663.512	3570.750
663.640	3597.662
663.768	3547.812
663.896	3592.575
664.024	3616.300
664.152	3570.525
664.280	3588.963
664.408	3595.463
664.537	3591.350
664.665	3507.012
664.793	3493.312
664.921	3497.625
665.049	3512.037
665.177	3532.250
665.305	3538.312
665.433	3512.787
665.562	3483.387
665.690	3517.213
665.818	3672.062
665.946	3515.000
666.074	3494.437
666.202	3450.075
666.330	3497.562
666.458	3462.713
666.587	3425.512
666.715	3415.475
666.843	3419.925
666.971	3379.350
667.099	3420.937
667.227	3411.838
667.355	3431.463
667.483	3400.700
667.612	3421.850
667.740	3421.037
667.868	3444.437
667.996	3399.400
668.124	3347.000
668.252	3351.125
668.380	3361.500
668.508	3379.650
668.637	3349.812
668.765	3336.800
668.893	3375.450
669.021	3290.175
669.149	3359.200
669.277	3379.162
669.405	3314.187
669.533	3283.200
669.662	3520.312
669.790	3289.437
669.918	3361.625
670.046	3271.950
670.174	3359.325
670.302	3308.037
670.430	3271.175
670.558	3331.875
670.687	3254.850
670.815	3386.213
670.943	3203.363
671.071	3202.988
671.199	3249.137
671.327	3198.363
671.455	3206.187
671.583	3181.900
671.712	3331.200
671.840	3190.537
671.968	3151.812
672.096	3161.137
672.224	3115.588
672.352	3302.150
672.480	3136.100
672.608	3105.700
672.737	3083.875
672.865	3275.850
672.993	3085.762
673.121	3055.325
673.249	3053.050
673.377	3036.575
673.505	3032.600
673.633	3019.250
673.762	3024.750
673.890	3010.088
674.018	3231.088
674.146	3001.325
674.274	2994.412
674.402	3171.838
674.530	2998.925
674.658	3002.650
674.787	2944.950
674.915	2913.475
675.043	3000.287
675.171	2980.925
675.299	2912.600
675.427	2948.750
675.555	2873.162
675.683	2871.575
675.812	2893.238
675.940	2876.725
676.068	2883.338
676.196	2829.200
676.324	2874.100
676.452	2888.900
676.580	2820.725
676.708	2870.838
676.837	2904.037
676.965	2789.012
677.093	2800.125
677.221	2787.113
677.349	2831.863
677.477	2881.113
677.605	2776.950
677.733	2849.350
677.862	2736.762
677.990	2713.162
678.118	2725.525
678.246	2721.787
678.374	2725.988
678.502	2694.463
678.630	2659.637
678.758	2646.738
678.887	2669.988
679.015	2678.750
679.143	2649.488
679.271	2645.937
679.399	2652.387
679.527	2660.088
679.655	2594.875
679.783	2635.100
679.912	2616.075
680.040	2633.450
680.168	2614.062
680.296	2618.250
680.424	2579.475
680.552	2601.963
680.680	2644.950
680.808	2559.012
680.937	2550.963
681.065	2548.200
681.193	2554.262
681.321	2566.250
681.449	2536.675
681.577	2538.325
681.705	2558.613
681.833	2528.463
681.962	2497.975
682.090	2615.463
682.218	2487.050
682.346	2499.875
682.474	2509.738
682.602	2505.325
682.730	2492.162
682.858	2477.575
682.987	2511.000
683.115	2476.775
683.243	2449.887
683.371	2462.200
683.499	2442.562
683.627	2488.037
683.755	2464.675
683.883	2504.738
684.012	2452.850
684.140	2429.262
684.268	2435.787
684.396	2433.900
684.524	2435.613
684.652	2453.238
684.780	2442.650
684.908	2429.137
685.037	2411.775
685.165	2391.637
685.293	2402.937
685.421	2396.738
685.549	2380.863
685.677	2385.400
685.805	2395.225
685.933	2375.213
686.062	2354.675
686.190	2370.213
686.318	2389.037
686.446	2361.687
686.574	2336.588
686.702	2383.463
686.830	2350.713
686.958	2348.675
687.087	2345.775
687.215	2324.113
687.343	2321.512
687.471	2345.537
687.599	2311.200
687.727	2302.437
687.855	2318.375
687.983	2314.463
688.112	2324.437
688.240	2290.863
688.368	2296.850
688.496	2302.725
688.624	2288.400
688.752	2279.162
688.880	2274.675
689.008	2253.238
689.137	2269.875
689.265	2253.550
689.393	2229.825
689.521	2238.562
689.649	2231.887
689.777	2233.425
689.905	2232.238
690.033	2230.363
690.162	2217.175
690.290	2204.850
690.418	2210.762
690.546	2226.338
690.674	2217.162
690.802	2178.662
690.930	2180.088
691.058	2171.850
691.187	2154.925
691.315	2178.575
691.443	2149.000
691.571	2148.113
691.699	2128.787
691.827	2139.225
691.955	2122.625
692.083	2106.113
692.212	2112.875
692.340	2115.363
692.468	2105.738
692.596	2085.375
692.724	2098.075
692.852	2088.775
692.980	2077.363
693.108	2068.350
693.237	2065.175
693.365	2051.750
693.493	2047.537
693.621	2023.138
693.749	2034.000
693.877	2004.687
694.005	2006.338
694.133	2031.487
694.262	2005.763
694.390	1999.200
694.518	1964.263
694.646	1978.112
694.774	1969.825
694.902	1961.662
695.030	2000.375
695.158	1947.025
695.287	1934.987
695.415	1925.075
695.543	1923.950
695.671	1920.250
695.799	1910.112
695.927	1906.787
696.055	1894.325
696.183	1925.612
696.312	1888.550
696.440	1881.325
696.568	1876.487
696.696	1858.475
696.824	1855.062
696.952	1860.412
697.080	1839.375
697.208	1862.575
697.337	1817.338
697.465	1812.237
697.593	1826.463
697.721	1814.225
697.849	1808.175
697.977	1809.750
698.105	1800.175
698.233	1802.588
698.362	1771.513
698.490	1770.000
698.618	1780.138
698.746	1759.437
698.874	1776.250
699.002	1764.025
699.130	1741.862
699.258	1750.138
699.387	1719.800
699.515	1717.287
699.643	1723.412
699.771	1716.175
699.899	1712.287
700.027	1708.388
700.155	1701.200
700.283	1690.575
700.412	1680.775
700.540	1673.513
700.668	1663.975
700.796	1661.575
700.924	1632.950
701.052	1638.787
701.180	1639.787
701.308	1639.125
701.437	1627.225
701.565	1621.912
701.693	1604.075
701.821	1632.388
701.949	1605.812
702.077	1588.325
702.205	1592.900
702.333	1578.625
702.462	1586.700
702.590	1577.412
702.718	1571.800
702.846	1565.800
702.974	1561.812
703.102	1554.300
703.230	1552.812
703.358	1526.850
703.487	1524.963
703.615	1535.362
703.743	1505.325
703.871	1522.713
703.999	1485.187
704.127	1496.325
704.255	1494.088
704.383	1483.687
704.512	1467.638
704.640	1468.213
704.768	1450.375
704.896	1458.362
705.024	1441.250
705.152	1445.912
705.280	1446.187
705.408	1437.138
705.537	1423.138
705.665	1418.900
705.793	1407.062
705.921	1396.775
706.049	1410.888
706.177	1390.562
706.305	1381.575
706.433	1376.250
706.562	1368.675
706.690	1366.300
706.818	1345.287
706.946	1359.600
707.074	1363.487
707.202	1342.775
707.330	1340.612
707.458	1338.362
707.587	1318.300
707.715	1316.812
707.843	1309.650
707.971	1316.650
708.099	1311.800
708.227	1287.013
708.355	1294.975
708.483	1302.187
708.612	1278.763
708.740	1284.263
708.868	1261.250
708.996	1270.037
709.124	1282.525
709.252	1256.138
709.380	1248.162
709.508	1229.000
709.637	1226.850
709.765	1233.412
709.893	1214.875
710.021	1229.300
710.149	1210.437
710.277	1224.412
710.405	1210.838
710.533	1190.612
710.662	1194.275
710.790	1206.750
710.918	1190.463
711.046	1180.100
711.174	1192.787
711.302	1173.537
711.430	1160.525
711.558	1170.425
711.687	1156.737
711.815	1149.912
711.943	1159.638
712.071	1141.000
712.199	1146.662
712.327	1134.075
712.455	1125.750
712.583	1131.875
712.712	1134.975
712.840	1115.775
712.968	1106.875
713.096	1107.662
713.224	1104.112
713.352	1101.175
713.480	1086.713
713.608	1092.825
713.737	1068.300
713.865	1073.787
713.993	1067.525
714.121	1064.612
714.249	1069.838
714.377	1048.950
714.505	1057.825
714.633	1035.575
714.762	1033.638
714.890	1038.487
715.018	1043.500
715.146	1021.987
715.274	1023.413
715.402	1015.937
715.530	1025.513
715.658	1011.962
715.787	1005.325
715.915	1008.413
716.043	986.475
716.171	1005.625
716.299	1013.625
716.427	990.437
716.555	1003.725
716.683	981.237
716.812	982.575
716.940	983.862
717.068	949.950
717.196	964.062
717.324	954.737
717.452	960.250
717.580	940.862
717.708	941.350
717.837	952.763
717.965	940.400
718.093	925.225
718.221	921.862
718.349	932.112
718.477	927.325
718.605	903.062
718.733	912.225
718.862	897.312
718.990	895.038
719.118	896.038
719.246	889.925
719.374	886.388
719.502	886.725
719.630	897.212
719.758	880.263
719.887	868.138
720.015	873.587
720.143	866.212
720.271	865.937
720.399	855.788
720.527	856.288
720.655	846.837
720.783	837.812
720.912	848.225
721.040	848.288
721.168	837.288
721.296	833.450
721.424	829.675
721.552	819.675
721.680	818.237
721.808	823.337
721.937	824.687
722.065	804.075
722.193	794.750
722.321	793.413
722.449	784.175
722.577	791.700
722.705	783.275
722.833	778.900
722.962	790.812
723.090	773.450
723.218	769.050
723.346	761.375
723.474	768.663
723.602	767.413
723.730	743.712
723.858	761.013
723.987	750.325
724.115	741.538
724.243	746.000
724.371	740.800
724.499	733.312
724.627	725.525
724.755	731.487
724.883	729.500
725.012	725.362
725.140	713.425
725.268	720.000
725.396	711.388
725.524	700.212
725.652	705.062
725.780	694.375
725.908	692.700
726.037	689.300
726.165	680.163
726.293	677.400
726.421	669.312
726.549	678.087
726.677	671.312
726.805	677.538
726.933	671.263
727.062	661.013
727.190	657.850
727.318	655.175
727.446	652.425
727.574	655.587
727.702	652.212
727.830	646.150
727.958	639.700
728.087	635.475
728.215	634.500
728.343	634.625
728.471	628.712
728.599	612.050
728.727	630.975
728.855	617.075
728.983	618.138
729.112	608.187
729.240	611.525
729.368	609.337
729.496	601.612
729.624	603.950
729.752	589.862
729.880	601.112
730.008	593.987
730.137	593.263
730.265	582.025
730.393	581.638
730.521	577.062
730.649	579.425
730.777	576.413
730.905	567.038
731.033	573.263
731.162	558.200
731.290	567.475
731.418	562.050
731.546	576.750
731.674	554.362
731.802	549.362
731.930	556.475
732.058	547.175
732.187	548.525
732.315	538.225
732.443	540.050
732.571	530.288
732.699	530.850
732.827	530.675
732.955	526.587
733.083	517.550
733.212	520.538
733.340	520.875
733.468	517.013
733.596	520.925
733.724	509.950
733.852	512.125
733.980	495.200
734.108	508.613
734.237	516.888
734.365	503.187
734.493	503.687
734.621	488.075
734.749	502.500
734.877	488.000
735.005	489.225
735.133	490.812
735.262	491.375
735.390	480.900
735.518	485.325
735.646	477.425
735.774	469.087
735.902	479.725
736.030	477.512
736.158	477.750
736.287	469.712
736.415	471.275
736.543	459.587
736.671	462.300
736.799	454.525
736.927	466.375
737.055	460.850
737.183	452.687
737.312	455.687
737.440	459.150
737.568	463.075
737.696	450.762
737.824	439.800
737.952	458.850
738.080	444.975
738.208	448.375
738.337	432.400
738.465	443.587
738.593	439.050
738.721	424.250
738.849	426.312
738.977	433.462
739.105	427.762
739.233	423.762
739.362	428.113
739.490	413.113
739.618	420.062
739.746	419.700
739.874	422.950
740.002	411.725
740.130	409.788
740.258	413.600
740.387	413.288
740.515	402.125
740.643	407.650
740.771	406.675
740.899	400.825
741.027	398.100
741.155	399.312
741.283	390.400
741.412	390.775
741.540	392.175
741.668	382.113
741.796	382.462
741.924	394.475
742.052	386.113
742.180	381.437
742.308	381.900
742.437	377.637
742.565	384.275
742.693	375.500
742.821	377.337
742.949	371.000
743.077	373.950
743.205	370.187
743.333	373.525
743.462	369.375
743.590	365.687
743.718	358.700
743.846	362.050
743.974	362.775
744.102	351.750
744.230	355.875
744.358	351.600
744.487	363.587
744.615	350.637
744.743	357.038
744.871	346.775
744.999	353.587
745.127	345.137
745.255	337.750
745.383	342.613
745.512	345.587
745.640	340.250
745.768	336.600
745.896	333.175
746.024	336.900
746.152	332.113
746.280	329.337
746.408	341.238
746.537	333.762
746.665	333.687
746.793	321.975
746.921	325.413
747.049	322.712
747.177	325.575
747.305	315.150
747.433	323.375
747.562	315.663
747.690	312.700
747.818	318.437
747.946	312.800
748.074	334.650
748.202	310.962
748.330	307.200
748.458	312.500
748.587	312.575
748.715	302.312
748.843	307.337
748.971	303.762
749.099	306.525
749.227	305.250
749.355	297.988
749.483	296.788
749.612	295.125
749.740	290.913
749.868	293.025
749.996	291.500
750.124	293.337
750.252	290.687
750.380	293.775
750.508	285.163
750.637	280.512
750.765	289.075
750.893	284.775
751.021	282.950
751.149	280.475
751.277	291.637
751.405	291.613
751.533	294.212
751.662	284.837
751.790	291.337
751.918	292.325
752.046	277.000
752.174	271.975
752.302	281.925
752.430	281.475
752.558	271.950
752.687	270.312
752.815	280.975
752.943	271.150
753.071	266.575
753.199	264.000
753.327	272.400
753.455	263.837
753.583	260.250
753.712	263.137
753.840	261.650
753.968	262.062
754.096	257.462
754.224	258.687
754.352	252.838
754.480	254.650
754.608	248.187
754.737	253.625
754.865	257.600
754.993	250.963
755.121	249.838
755.249	258.025
755.377	245.238
755.505	245.325
755.633	267.163
755.762	241.000
755.890	255.200
756.018	248.287
756.146	243.762
756.274	248.437
756.402	236.812
756.530	244.600
756.658	251.350
756.787	236.200
756.915	230.350
757.043	237.450
757.171	237.812
757.299	238.287
757.427	234.775
757.555	233.775
757.683	236.075
757.812	234.925
757.940	229.287
758.068	231.900
758.196	223.600
758.324	228.687
758.452	223.575
758.580	225.450
758.708	225.287
758.837	223.363
758.965	234.113
759.093	224.800
759.221	215.363
759.349	219.088
759.477	217.162
759.605	214.363
759.733	218.000
759.862	219.400
759.990	215.975
760.118	217.037
760.246	207.475
760.374	215.325
760.502	211.675
760.630	210.488
760.758	203.075
760.887	206.075
761.015	204.012
761.143	212.875
761.271	203.000
761.399	205.450
761.527	201.950
761.655	204.512
761.783	205.300
761.912	200.963
762.040	207.675
762.168	200.662
762.296	198.450
762.424	195.437
762.552	197.562
762.680	199.000
762.808	194.475
762.937	203.113
763.065	203.312
763.193	199.425
763.321	196.050
763.449	188.225
763.577	190.950
763.705	196.700
763.833	211.012
763.962	191.988
764.090	191.437
764.218	188.750
764.346	192.738
764.474	190.387
764.602	191.975
764.730	188.562
764.858	185.000
764.987	190.062
765.115	192.025
765.243	199.325
765.371	181.637
765.499	182.325
765.627	181.162
765.755	181.412
765.883	179.838
766.012	179.338
766.140	179.000
766.268	179.363
766.396	178.113
766.524	178.800
766.652	177.338
766.780	176.200
766.908	178.963
767.037	177.988
767.165	174.613
767.293	186.850
767.421	177.100
767.549	172.613
767.677	179.937
767.805	171.650
767.933	176.550
768.062	173.700
768.190	172.312
768.318	171.150
768.446	183.600
768.574	181.975
768.702	174.863
768.830	171.450
768.958	169.387
769.087	177.863
769.215	172.863
769.343	169.637
769.471	169.675
769.599	170.925
769.727	164.950
769.855	171.637
769.983	167.637
770.112	165.062
770.240	170.037
770.368	164.412
770.496	162.687
770.624	160.287
770.752	169.338
770.880	177.588
771.008	166.512
771.137	166.687
771.265	165.625
771.393	166.113
771.521	164.363
771.649	159.262
771.777	158.300
771.905	166.150
772.033	162.162
772.162	162.187
772.290	168.025
772.418	171.050
772.546	158.912
772.674	157.700
772.802	163.287
772.930	163.088
773.058	154.463
773.187	161.900
773.315	159.325
773.443	158.675
773.571	156.100
773.699	154.175
773.827	153.675
773.955	161.825
774.083	171.012
774.212	152.850
774.340	155.838
774.468	158.125
774.596	159.000
774.724	162.750
774.852	149.600
774.980	156.762
775.108	149.175
775.237	150.338
775.365	149.187
775.493	149.488
775.621	151.875
775.749	155.988
775.877	155.525
776.005	150.075
776.133	155.937
776.262	151.363
776.390	148.738
776.518	156.137
776.646	148.012
776.774	149.875
776.902	153.550
777.030	152.350
777.158	150.550
777.287	152.512
777.415	146.900
777.543	146.800
777.671	146.762
777.799	145.637
777.927	150.800
778.055	151.537
778.183	151.850
778.312	142.363
778.440	144.088
778.568	148.975
778.696	145.588
778.824	152.150
778.952	145.162
779.080	146.125
779.208	152.350
779.337	146.812
779.465	147.187
779.593	147.325
779.721	150.037
779.849	144.175
779.977	142.787
780.105	144.550
780.233	144.875
780.362	149.600
780.490	144.425
780.618	142.012
780.746	142.625
780.874	139.812
781.002	136.437
781.130	144.400
781.258	137.637
781.387	147.150
781.515	141.187
781.643	141.375
781.771	148.775
781.899	142.937
782.027	139.637
782.155	137.975
782.283	137.963
782.412	140.525
782.540	144.187
782.668	139.675
782.796	135.875
782.924	138.537
783.052	135.550
783.180	142.887
783.308	135.963
783.437	140.437
783.565	139.287
783.693	137.637
783.821	141.125
783.949	135.675
784.077	140.187
784.205	145.088
784.333	150.150
784.462	131.475
784.590	139.137
784.718	140.325
784.846	131.512
784.974	137.575
785.102	145.387
785.230	139.562
785.358	144.375
785.487	134.825
785.615	137.525
785.743	131.387
785.871	131.250
785.999	135.250
786.127	129.613
786.255	142.887
786.383	137.412
786.512	136.200
786.640	128.512
786.768	140.825
786.896	133.300
787.024	134.312
787.152	132.525
787.280	130.250
787.408	130.100
787.537	133.887
787.665	130.425
787.793	136.225
787.921	136.025
788.049	132.662
788.177	126.125
788.305	127.112
788.433	133.387
788.562	129.975
788.690	127.162
788.818	127.838
788.946	127.825
789.074	129.037
789.202	133.975
789.330	131.187
789.458	129.050
789.587	128.700
789.715	132.925
789.843	129.775
789.971	126.300
790.099	126.150
790.227	126.737
790.355	125.162
790.483	132.350
790.612	129.650
790.740	127.562
790.868	130.887
790.996	128.537
791.124	130.325
791.252	130.125
791.380	129.050
791.508	126.200
791.637	138.425
791.765	124.100
791.893	124.187
792.021	131.687
792.149	128.338
792.277	127.862
792.405	125.463
792.533	135.525
792.662	123.312
792.790	125.912
792.918	133.437
793.046	123.037
793.174	126.575
793.302	126.950
793.430	124.562
793.558	134.937
793.687	122.388
793.815	126.287
793.943	125.000
794.071	122.425
794.199	123.075
794.327	128.000
794.455	142.325
794.583	138.200
794.712	131.025
794.840	122.225
794.968	124.638
795.096	129.300
795.224	123.350
795.352	123.225
795.480	127.100
795.608	125.150
795.737	127.362
795.865	123.950
795.993	119.075
796.121	122.537
796.249	121.950
796.377	120.213
796.505	127.250
796.633	122.425
796.762	125.787
796.890	128.713
797.018	124.987
797.146	119.900
797.274	118.588
797.402	118.975
797.530	120.875
797.658	122.000
797.787	126.650
797.915	121.875
798.043	122.362
798.171	124.263
798.299	119.950
798.427	122.550
798.555	121.225
798.683	117.662
798.812	121.625
798.940	121.725
799.068	122.812
799.196	128.963
799.324	118.713
799.452	122.625
799.580	118.800
799.708	127.625
799.837	118.050
799.965	116.888
800.093	117.862
800.221	122.513
800.349	121.175
800.477	124.000
800.605	123.050
800.733	124.862
800.862	121.237
800.990	134.325
801.118	123.600
801.246	118.013
801.374	117.287
801.502	119.987
801.630	114.600
801.758	115.937
801.887	120.412
802.015	115.625
802.143	116.150
802.271	118.812
802.399	122.912
802.527	122.425
802.655	118.300
802.783	122.725
802.912	122.237
803.040	118.275
803.168	118.925
803.296	111.375
803.424	113.162
803.552	115.950
803.680	118.025
803.808	116.763
803.937	116.125
804.065	118.100
804.193	112.713
804.321	114.600
804.449	116.787
804.577	115.325
804.705	114.412
804.833	109.725
804.962	111.537
805.090	115.013
805.218	119.675
805.346	113.763
805.474	118.463
805.602	128.700
805.730	116.550
805.858	112.862
805.987	126.050
806.115	117.200
806.243	112.388
806.371	111.588
806.499	113.187
806.627	111.912
806.755	115.937
806.883	111.987
807.012	114.912
807.140	116.862
807.268	115.037
807.396	111.675
807.524	110.912
807.652	114.050
807.780	126.638
807.908	115.700
808.037	121.537
808.165	118.687
808.293	115.937
808.421	120.000
808.549	111.275
808.677	113.375
808.805	121.588
808.933	114.325
809.062	114.300
809.190	125.275
809.318	116.175
809.446	111.513
809.574	112.537
809.702	113.175
809.830	113.513
809.958	120.338
810.087	112.825
810.215	121.713
810.343	127.150
810.471	116.963
810.599	112.550
810.727	112.437
810.855	110.838
810.983	113.888
811.112	111.588
811.240	115.088
811.368	117.650
811.496	122.112
811.624	117.013
811.752	112.250
811.880	108.562
812.008	109.300
812.137	116.487
812.265	114.175
812.393	113.300
812.521	114.763
812.649	116.763
812.777	113.350
812.905	116.338
813.033	110.013
813.162	111.763
813.290	111.450
813.418	110.963
813.546	112.737
813.674	111.588
813.802	112.237
813.930	110.050
814.058	106.638
814.187	107.675
814.315	112.213
814.443	108.575
814.571	107.475
814.699	115.912
814.827	113.862
814.955	109.625
815.083	111.987
815.212	112.812
815.340	110.888
815.468	110.263
815.596	112.888
815.724	108.575
815.852	116.725
815.980	111.975
816.108	113.375
816.237	113.050
816.365	108.500
816.493	112.300
816.621	110.338
816.749	110.225
816.877	113.650
817.005	116.500
817.133	110.925
817.262	109.075
817.390	111.075
817.518	110.338
817.646	112.287
817.774	112.013
817.902	117.312
818.030	107.812
818.158	115.037
818.287	109.112
818.415	107.725
818.543	109.037
818.671	112.713
818.799	112.187
818.927	115.350
819.055	113.375
819.183	108.200
819.312	109.662
819.440	110.862
819.568	108.787
819.696	117.625
819.824	113.025
819.952	108.088
820.080	110.050
820.208	108.450
820.337	109.812
820.465	110.175
820.593	110.088
820.721	111.275
820.849	108.862
820.977	108.700
821.105	107.062
821.233	107.975
821.362	112.675
821.490	108.388
821.618	109.250
821.746	108.425
821.874	110.463
822.002	111.213
822.130	110.250
822.258	109.325
822.387	110.375
822.515	110.312
822.643	106.525
822.771	106.088
822.899	109.600
823.027	109.450
823.155	109.588
823.283	111.450
823.412	110.463
823.540	111.463
823.668	129.662
823.796	108.412
823.924	109.537
824.052	115.138
824.180	106.475
824.308	106.725
824.437	108.963
824.565	106.513
824.693	111.838
824.821	109.525
824.949	110.963
825.077	109.888
825.205	112.037
825.333	110.600
825.462	110.925
825.590	108.687
825.718	115.388
825.846	109.187
825.974	109.763
826.102	112.025
826.230	109.950
826.358	108.725
826.487	107.625
826.615	109.187
826.743	110.025
826.871	112.425
826.999	111.338
827.127	111.825
827.255	108.525
827.383	106.950
827.512	112.075
827.640	111.687
827.768	107.475
827.896	108.487
828.024	110.350
828.152	110.075
828.280	109.025
828.408	107.463
828.537	104.400
828.665	107.513
828.793	109.388
828.921	109.013
829.049	105.500
829.177	105.550
829.305	106.500
829.433	106.700
829.562	105.588
829.690	106.125
829.818	111.487
829.946	109.200
830.074	106.150
830.202	109.075
830.330	109.713
830.458	115.737
830.587	109.825
830.715	105.675
830.843	106.750
830.971	107.838
831.099	110.287
831.227	106.225
831.355	105.625
831.483	105.937
831.612	111.250
831.740	110.237
831.868	119.450
831.996	106.925
832.124	106.562
832.252	104.925
832.380	108.312
832.508	109.862
832.637	110.937
832.765	109.250
832.893	110.937
833.021	110.850
833.149	104.700
833.277	106.013
833.405	104.775
833.533	106.600
833.662	106.537
833.790	108.987
833.918	110.763
834.046	109.912
834.174	111.275
834.302	107.187
834.430	105.575
834.558	106.950
834.687	111.263
834.815	103.687
834.943	105.937
835.071	105.912
835.199	107.287
835.327	107.237
835.455	104.400
835.583	107.925
835.712	107.100
835.840	108.475
835.968	106.162
836.096	109.312
836.224	112.213
836.352	109.838
836.480	109.362
836.608	110.925
836.737	106.737
836.865	105.138
836.993	105.263
837.121	105.287
837.249	107.525
837.377	109.200
837.505	106.800
837.633	108.513
837.762	105.588
837.890	105.187
838.018	111.287
838.146	106.425
838.274	108.263
838.402	111.000
838.530	103.937
838.658	104.675
838.787	107.025
838.915	109.275
839.043	110.737
839.171	110.588
839.299	106.225
839.427	107.225
839.555	115.650
839.683	108.950
839.812	105.775
839.940	104.100
840.068	108.500
840.196	107.025
840.324	109.963
840.452	111.350
840.580	109.825
840.708	104.862
840.837	110.250
840.965	108.900
841.093	108.312
841.221	110.987
841.349	109.000
841.477	109.425
841.605	107.275
841.733	102.900
841.862	107.513
841.990	109.263
842.118	105.375
842.246	103.225
842.374	104.562
842.502	106.338
842.630	106.112
842.758	107.500
842.887	106.312
843.015	108.088
843.143	108.725
843.271	109.825
843.399	108.362
843.527	106.125
843.655	103.600
843.783	106.525
843.912	108.200
844.040	114.463
844.168	114.763
844.296	106.588
844.424	108.150
844.552	110.287
844.680	113.138
844.808	111.412
844.937	106.888
845.065	104.213
845.193	109.125
845.321	106.487
845.449	108.862
845.577	105.862
845.705	109.612
845.833	108.888
845.962	105.437
846.090	104.987
846.218	108.687
846.346	108.138
846.474	104.850
846.602	105.575
846.730	105.312
846.858	103.625
846.987	105.700
847.115	106.550
847.243	108.825
847.371	111.112
847.499	107.362
847.627	106.425
847.755	106.088
847.883	107.388
848.012	108.275
848.140	110.150
848.268	106.100
848.396	105.550
848.524	106.537
848.652	108.187
848.780	104.225
848.908	107.287
849.037	108.425
849.165	107.487
849.293	106.612
849.421	110.237
849.549	107.700
849.677	107.263
849.805	112.700
849.933	111.050
850.062	106.638
850.190	107.162
850.318	106.437
850.446	106.763
850.574	104.612
850.702	105.600
850.830	108.525
850.958	106.362
851.087	107.013
851.215	115.850
851.343	108.950
851.471	105.963
851.599	107.125
851.727	109.800
851.855	109.013
851.983	107.013
852.112	106.225
852.240	107.787
852.368	108.300
852.496	105.713
852.624	104.975
852.752	104.763
852.880	105.150
853.008	110.537
853.137	107.187
853.265	107.187
853.393	109.625
853.521	111.187
853.649	111.475
853.777	107.562
853.905	107.375
854.033	107.725
854.162	105.025
854.290	105.187
854.418	103.925
854.546	104.638
854.674	108.175
854.802	106.287
854.930	103.975
855.058	104.388
855.187	105.037
855.315	104.175
855.443	103.900
855.571	103.237
855.699	107.862
855.827	108.450
855.955	105.125
856.083	105.562
856.212	105.500
856.340	106.400
856.468	107.025
856.596	108.650
856.724	106.975
856.852	106.838
856.980	105.588
857.108	106.013
857.237	108.138
857.365	106.925
857.493	104.750
857.621	103.162
857.749	103.062
857.877	105.412
858.005	108.925
858.133	108.437
858.262	106.787
858.390	104.650
858.518	103.250
858.646	105.588
858.774	105.200
858.902	107.700
859.030	107.625
859.158	105.487
859.287	105.638
859.415	107.287
859.543	102.525
859.671	108.800
859.799	110.713
859.927	110.475
860.055	107.713
860.183	105.562
860.312	104.950
860.440	104.475
860.568	107.225
860.696	106.138
860.824	117.800
860.952	104.600
861.080	105.175
861.208	106.338
861.337	106.537
861.465	108.725
861.593	112.450
861.721	106.287
861.849	104.625
861.977	107.475
862.105	108.437
862.233	106.787
862.362	108.912
862.490	105.812
862.618	102.825
862.746	104.800
862.874	106.787
863.002	108.187
863.130	108.763
863.258	106.287
863.387	107.562
863.515	107.375
863.643	104.112
863.771	105.187
863.899	106.588
864.027	104.687
864.155	104.862
864.283	103.487
864.412	104.475
864.540	104.225
864.668	103.687
864.796	105.100
864.924	106.963
865.052	107.525
865.180	105.237
865.308	101.287
865.437	106.350
865.565	104.000
865.693	106.400
865.821	106.737
865.949	105.588
866.077	104.987
866.205	104.925
866.333	104.412
866.462	103.525
866.590	106.513
866.718	107.037
866.846	103.450
866.974	105.713
867.102	106.888
867.230	105.487
867.358	106.575
867.487	107.375
867.615	104.075
867.743	107.225
867.871	107.862
867.999	105.862
868.127	103.162
868.255	114.950
868.383	107.300
868.512	106.700
868.640	107.737
868.768	105.800
868.896	107.325
869.024	107.775
869.152	106.237
869.280	105.700
869.408	105.463
869.537	106.338
869.665	107.350
869.793	104.362
869.921	105.900
870.049	106.463
870.177	104.125
870.305	116.200
870.433	106.375
870.562	104.450
870.690	103.225
870.818	104.500
870.946	106.687
871.074	102.525
871.202	105.900
871.330	105.963
871.458	105.000
871.587	104.375
871.715	103.713
871.843	106.250
871.971	106.400
872.099	105.487
872.227	107.225
872.355	104.513
872.483	104.100
872.612	107.838
872.740	108.225
872.868	105.800
872.996	107.400
873.124	107.450
873.252	108.612
873.380	106.312
873.508	107.200
873.637	105.862
873.765	106.713
873.893	108.537
874.021	105.937
874.149	105.763
874.277	106.763
874.405	113.375
874.533	105.912
874.662	330.150
874.790	106.725
874.918	108.787
875.046	108.412
875.174	105.175
875.302	106.225
875.430	105.800
875.558	104.925
875.687	108.612
875.815	107.050
875.943	106.700
876.071	109.025
876.199	110.937
876.327	113.050
876.455	105.412
876.583	111.513
876.712	108.150
876.840	107.888
876.968	106.475
877.096	106.562
877.224	104.300
877.352	103.912
877.480	105.513
877.608	105.400
877.737	106.812
877.865	104.638
877.993	107.463
878.121	104.800
878.249	105.175
878.377	104.450
878.505	105.650
878.633	108.950
878.762	105.437
878.890	104.850
879.018	106.213
879.146	107.412
879.274	105.700
879.402	106.450
879.530	109.187
879.658	107.963
879.787	106.200
879.915	107.575
880.043	106.925
880.171	106.987
880.299	104.350
880.427	107.525
880.555	109.400
880.683	108.725
880.812	105.013
880.940	106.125
881.068	107.275
881.196	102.525
881.324	104.950
881.452	105.237
881.580	106.812
881.708	106.075
881.837	104.050
881.965	105.937
882.093	104.638
882.221	104.187
882.349	111.550
882.477	110.475
882.605	109.713
882.733	106.787
882.862	107.300
882.990	106.213
883.118	105.888
883.246	105.375
883.374	106.900
883.502	104.812
883.630	104.862
883.758	106.950
883.887	105.650
884.015	105.575
884.143	106.612
884.271	106.412
884.399	107.250
884.527	103.950
884.655	107.425
884.783	106.088
884.912	106.513
885.040	108.112
885.168	105.475
885.296	104.200
885.424	106.338
885.552	110.750
885.680	105.737
885.808	104.650
885.937	109.000
886.065	107.825
886.193	105.675
886.321	104.013
886.449	104.350
886.577	105.362
886.705	106.125
886.833	106.838
886.962	104.400
887.090	107.437
887.218	105.925
887.346	106.388
887.474	112.450
887.602	109.112
887.730	107.612
887.858	105.800
887.987	106.600
888.115	105.888
888.243	107.713
888.371	107.825
888.499	109.325
888.627	109.500
888.755	105.463
888.883	104.625
889.012	105.100
889.140	106.412
889.268	114.125
889.396	109.612
889.524	105.187
889.652	105.725
889.780	107.050
889.908	107.250
890.037	106.650
890.165	107.888
890.293	108.300
890.421	105.025
890.549	107.187
890.677	108.500
890.805	107.088
890.933	106.838
891.062	105.325
891.190	107.838
891.318	110.625
891.446	107.737
891.574	105.600
891.702	105.612
891.830	105.600
891.958	110.487
892.087	108.838
892.215	108.412
892.343	108.812
892.471	107.675
892.599	108.062
892.727	110.875
892.855	107.750
892.983	108.675
893.112	106.625
893.240	112.075
893.368	106.487
893.496	108.062
893.624	105.975
893.752	109.475
893.880	108.175
894.008	106.100
894.137	108.562
894.265	108.187
894.393	107.975
894.521	108.525
894.649	108.062
894.777	106.237
894.905	106.950
895.033	113.838
895.162	109.537
895.290	107.550
895.418	110.350
895.546	111.912
895.674	115.825
895.802	109.263
895.930	108.112
896.058	105.088
896.187	106.500
896.315	107.138
896.443	109.437
896.571	109.450
896.699	105.362
896.827	105.963
896.955	110.775
897.083	109.162
897.212	108.250
897.340	106.312
897.468	108.162
897.596	109.037
897.724	106.450
897.852	116.487
897.980	109.213
898.108	106.737
898.237	105.862
898.365	103.912
898.493	106.575
898.621	107.062
898.749	105.838
898.877	108.500
899.005	106.463
899.133	106.312
899.262	107.125
899.390	108.450
899.518	108.463
899.646	107.625
899.774	111.300
899.902	117.088
900.030	108.338
900.158	111.213
900.287	110.187
900.415	108.838
900.543	106.362
900.671	110.987
900.799	109.200
900.927	106.263
901.055	105.838
901.183	106.987
901.312	106.425
901.440	110.787
901.568	110.450
901.696	108.675
901.824	107.375
901.952	112.013
902.080	110.075
902.208	108.375
902.337	108.875
902.465	108.463
902.593	109.750
902.721	107.362
902.849	107.175
902.977	108.263
903.105	113.862
903.233	114.550
903.362	109.175
903.490	107.687
903.618	106.412
903.746	110.600
903.874	107.150
904.002	108.650
904.130	111.787
904.258	110.725
904.387	108.187
904.515	104.812
904.643	107.638
904.771	109.400
904.899	110.650
905.027	109.425
905.155	107.325
905.283	109.412
905.412	112.800
905.540	109.875
905.668	107.237
905.796	105.450
905.924	107.763
906.052	108.875
906.180	111.213
906.308	110.537
906.437	112.625
906.565	112.950
906.693	109.513
906.821	106.075
906.949	107.025
907.077	109.162
907.205	112.525
907.333	110.437
907.462	112.687
907.590	110.575
907.718	106.825
907.846	109.275
907.974	110.900
908.102	110.037
908.230	112.625
908.358	112.687
908.487	110.975
908.615	111.050
908.743	110.062
908.871	109.600
908.999	112.375
909.127	109.175
909.255	107.088
909.383	106.763
909.512	113.600
909.640	108.850
909.768	110.787
909.896	119.062
910.024	113.625
910.152	112.475
910.280	117.687
910.408	112.800
910.537	111.437
910.665	113.162
910.793	114.325
910.921	115.125
911.049	112.625
911.177	111.925
911.305	116.325
911.433	114.463
911.562	112.500
911.690	110.362
911.818	120.150
911.946	119.213
912.074	111.513
912.202	117.975
912.330	112.787
912.458	112.662
912.587	115.275
912.715	115.950
912.843	114.013
912.971	117.475
913.099	117.987
913.227	117.325
913.355	115.463
913.483	114.050
913.612	114.075
913.740	128.625
913.868	113.888
