sample12_PS_at_750.00nm_cut_at_1008.00Y_01.dat
15.05.2023
11:10:06
cut middle at Y: 1008.00
top cursor: 1048 down cursor: 968 mean of: 80 lines , 2560 datapoints
wavelength(nm)	intensity[arb. units]
585.996	995.775
586.124	974.687
586.252	965.875
586.380	954.950
586.508	966.687
586.637	968.513
586.765	960.525
586.893	964.712
587.021	966.650
587.149	982.125
587.277	976.100
587.405	975.587
587.533	975.825
587.662	977.075
587.790	984.875
587.918	981.163
588.046	982.900
588.174	977.888
588.302	988.263
588.430	992.562
588.558	989.212
588.687	980.725
588.815	999.462
588.943	978.212
589.071	987.350
589.199	990.575
589.327	989.300
589.455	971.975
589.583	986.862
589.712	996.950
589.840	984.300
589.968	980.275
590.096	974.700
590.224	991.625
590.352	988.050
590.480	981.050
590.608	981.650
590.737	978.800
590.865	992.163
590.993	985.800
591.121	985.687
591.249	999.962
591.377	981.750
591.505	986.437
591.633	987.875
591.762	985.237
591.890	989.725
592.018	990.825
592.146	990.475
592.274	999.675
592.402	987.725
592.530	992.600
592.658	1001.013
592.787	1007.825
592.915	982.812
593.043	993.562
593.171	999.975
593.299	1019.737
593.427	998.638
593.555	1003.312
593.683	1007.587
593.812	1002.462
593.940	1014.725
594.068	1005.825
594.196	1028.675
594.324	1014.775
594.452	1019.337
594.580	1026.225
594.708	1016.650
594.837	1016.200
594.965	1037.062
595.093	1031.287
595.221	1023.200
595.349	1036.525
595.477	1034.175
595.605	1032.513
595.733	1056.888
595.862	1037.838
595.990	1036.800
596.118	1051.638
596.246	1042.987
596.374	1061.487
596.502	1076.362
596.630	1072.175
596.758	1058.050
596.887	1069.125
597.015	1073.888
597.143	1061.713
597.271	1057.662
597.399	1076.775
597.527	1077.062
597.655	1081.175
597.783	1081.100
597.912	1065.138
598.040	1071.300
598.168	1067.487
598.296	1071.075
598.424	1075.625
598.552	1075.825
598.680	1065.625
598.808	1065.463
598.937	1078.588
599.065	1070.350
599.193	1063.675
599.321	1064.763
599.449	1083.263
599.577	1074.263
599.705	1075.612
599.833	1068.862
599.962	1067.350
600.090	1070.825
600.218	1059.338
600.346	1068.362
600.474	1086.275
600.602	1074.475
600.730	1071.638
600.858	1089.037
600.987	1078.225
601.115	1076.388
601.243	1073.275
601.371	1077.713
601.499	1093.162
601.627	1091.662
601.755	1097.700
601.883	1091.250
602.012	1098.575
602.140	1089.675
602.268	1091.625
602.396	1106.300
602.524	1100.575
602.652	1116.812
602.780	1115.838
602.908	1123.175
603.037	1131.162
603.165	1129.950
603.293	1126.275
603.421	1142.162
603.549	1123.600
603.677	1154.750
603.805	1143.963
603.933	1151.737
604.062	1140.400
604.190	1161.100
604.318	1154.500
604.446	1174.775
604.574	1175.425
604.702	1173.612
604.830	1175.925
604.958	1183.175
605.087	1200.237
605.215	1197.088
605.343	1202.800
605.471	1199.025
605.599	1208.812
605.727	1207.062
605.855	1232.213
605.983	1204.687
606.112	1216.450
606.240	1219.100
606.368	1233.775
606.496	1241.925
606.624	1231.400
606.752	1236.487
606.880	1238.112
607.008	1249.062
607.137	1249.638
607.265	1255.287
607.393	1268.713
607.521	1265.375
607.649	1257.987
607.777	1268.200
607.905	1264.412
608.033	1273.475
608.162	1269.487
608.290	1261.975
608.418	1278.213
608.546	1282.088
608.674	1286.437
608.802	1270.388
608.930	1284.187
609.058	1280.425
609.187	1281.737
609.315	1272.187
609.443	1286.500
609.571	1290.825
609.699	1287.500
609.827	1293.287
609.955	1276.638
610.083	1286.375
610.212	1292.612
610.340	1292.513
610.468	1294.275
610.596	1295.763
610.724	1289.987
610.852	1317.050
610.980	1290.200
611.108	1298.725
611.237	1293.250
611.365	1314.500
611.493	1297.237
611.621	1338.312
611.749	1326.812
611.877	1331.450
612.005	1320.138
612.133	1308.737
612.262	1318.700
612.390	1337.625
612.518	1333.700
612.646	1327.050
612.774	1337.362
612.902	1344.787
613.030	1340.638
613.158	1349.900
613.287	1386.400
613.415	1362.662
613.543	1349.900
613.671	1356.713
613.799	1378.362
613.927	1370.687
614.055	1364.825
614.183	1382.963
614.312	1371.287
614.440	1383.588
614.568	1383.787
614.696	1405.850
614.824	1387.575
614.952	1398.600
615.080	1421.675
615.208	1419.175
615.337	1427.825
615.465	1427.300
615.593	1451.225
615.721	1443.725
615.849	1443.375
615.977	1461.525
616.105	1446.175
616.233	1472.787
616.362	1461.463
616.490	1469.513
616.618	1467.050
616.746	1474.050
616.874	1488.325
617.002	1500.562
617.130	1506.187
617.258	1502.513
617.387	1507.088
617.515	1506.013
617.643	1510.312
617.771	1522.138
617.899	1517.350
618.027	1524.912
618.155	1525.463
618.283	1526.388
618.412	1537.963
618.540	1541.463
618.668	1541.737
618.796	1536.900
618.924	1557.050
619.052	1560.550
619.180	1559.550
619.308	1556.937
619.437	1568.362
619.565	1577.650
619.693	1559.787
619.821	1589.162
619.949	1563.700
620.077	1569.763
620.205	1593.187
620.333	1589.400
620.462	1599.150
620.590	1611.338
620.718	1593.475
620.846	1601.638
620.974	1642.550
621.102	1602.463
621.230	1611.787
621.358	1632.800
621.487	1612.850
621.615	1633.650
621.743	1653.150
621.871	1628.362
621.999	1615.537
622.127	1642.525
622.255	1635.213
622.383	1637.850
622.512	1656.250
622.640	1642.213
622.768	1664.562
622.896	1629.700
623.024	1640.775
623.152	1680.225
623.280	1654.225
623.408	1663.713
623.537	1675.625
623.665	1676.912
623.793	1678.200
623.921	1666.400
624.049	1680.525
624.177	1693.100
624.305	1676.838
624.433	1691.475
624.562	1692.588
624.690	1685.425
624.818	1695.825
624.946	1710.562
625.074	1714.800
625.202	1714.875
625.330	1705.325
625.458	1720.625
625.587	1724.062
625.715	1726.463
625.843	1723.600
625.971	1731.513
626.099	1743.912
626.227	1745.350
626.355	1733.725
626.483	1757.075
626.612	1751.812
626.740	1753.325
626.868	1780.213
626.996	1757.412
627.124	1758.987
627.252	1747.013
627.380	1782.112
627.508	1776.612
627.637	1768.638
627.765	1779.500
627.893	1809.475
628.021	1804.600
628.149	1832.138
628.277	1846.625
628.405	1836.862
628.533	1814.662
628.662	1807.112
628.790	1839.112
628.918	1827.963
629.046	1841.275
629.174	1840.737
629.302	1856.325
629.430	1860.638
629.558	1860.475
629.687	1869.763
629.815	1876.675
629.943	1883.437
630.071	1885.525
630.199	1897.562
630.327	1894.513
630.455	1902.237
630.583	1919.175
630.712	1924.600
630.840	1920.950
630.968	1964.950
631.096	1947.912
631.224	1941.275
631.352	1966.550
631.480	1962.275
631.608	1965.100
631.737	1968.812
631.865	1991.725
631.993	1973.412
632.121	1989.838
632.249	1993.675
632.377	2015.775
632.505	1996.975
632.633	2013.475
632.762	2037.812
632.890	2039.763
633.018	2033.187
633.146	2055.550
633.274	2062.275
633.402	2042.650
633.530	2055.475
633.658	2069.463
633.787	2049.963
633.915	2070.550
634.043	2068.750
634.171	2081.950
634.299	2097.050
634.427	2086.175
634.555	2089.613
634.683	2088.825
634.812	2079.463
634.940	2115.025
635.068	2088.800
635.196	2106.125
635.324	2136.500
635.452	2154.025
635.580	2122.488
635.708	2113.463
635.837	2123.650
635.965	2128.512
636.093	2144.287
636.221	2126.975
636.349	2156.150
636.477	2142.262
636.605	2176.625
636.733	2143.725
636.862	2142.387
636.990	2125.887
637.118	2161.875
637.246	2151.775
637.374	2139.588
637.502	2139.075
637.630	2171.725
637.758	2152.637
637.887	2159.450
638.015	2158.838
638.143	2185.975
638.271	2167.825
638.399	2158.562
638.527	2161.412
638.655	2166.075
638.783	2214.925
638.912	2179.000
639.040	2171.588
639.168	2181.750
639.296	2191.812
639.424	2202.925
639.552	2201.787
639.680	2225.412
639.808	2206.425
639.937	2192.262
640.065	2184.425
640.193	2216.100
640.321	2199.825
640.449	2233.150
640.577	2232.725
640.705	2196.800
640.833	2221.050
640.962	2226.625
641.090	2232.850
641.218	2232.150
641.346	2234.375
641.474	2235.150
641.602	2234.375
641.730	2270.213
641.858	2264.450
641.987	2270.200
642.115	2269.088
642.243	2278.187
642.371	2291.175
642.499	2279.550
642.627	2284.400
642.755	2300.300
642.883	2319.738
643.012	2306.937
643.140	2324.625
643.268	2321.312
643.396	2325.850
643.524	2357.012
643.652	2334.125
643.780	2348.625
643.908	2346.450
644.037	2365.000
644.165	2338.300
644.293	2352.050
644.421	2357.562
644.549	2378.463
644.677	2387.125
644.805	2393.425
644.933	2366.137
645.062	2394.200
645.190	2381.963
645.318	2392.075
645.446	2424.975
645.574	2434.762
645.702	2414.887
645.830	2484.675
645.958	2433.062
646.087	2473.675
646.215	2428.500
646.343	2510.713
646.471	2462.350
646.599	2463.950
646.727	2447.812
646.855	2465.812
646.983	2486.900
647.112	2471.463
647.240	2533.775
647.368	2479.450
647.496	2504.275
647.624	2460.850
647.752	2494.000
647.880	2491.950
648.008	2490.150
648.137	2480.863
648.265	2485.238
648.393	2495.062
648.521	2526.875
648.649	2507.687
648.777	2495.325
648.905	2506.475
649.033	2487.088
649.162	2505.175
649.290	2517.012
649.418	2515.863
649.546	2517.312
649.674	2536.075
649.802	2529.488
649.930	2591.437
650.058	2530.037
650.187	2549.387
650.315	2513.350
650.443	2548.863
650.571	2547.250
650.699	2535.363
650.827	2542.338
650.955	2535.075
651.083	2538.437
651.212	2568.800
651.340	2571.937
651.468	2545.113
651.596	2546.113
651.724	2541.050
651.852	2549.187
651.980	2507.062
652.108	2604.050
652.237	2533.363
652.365	2583.425
652.493	2535.088
652.621	2529.725
652.749	2582.963
652.877	2530.475
653.005	2558.463
653.133	2557.637
653.262	2560.613
653.390	2540.637
653.518	2591.437
653.646	2553.437
653.774	2647.225
653.902	2579.250
654.030	2548.637
654.158	2549.450
654.287	2550.162
654.415	2577.387
654.543	2571.025
654.671	2602.187
654.799	2559.963
654.927	2569.187
655.055	2543.562
655.183	2571.500
655.312	2551.475
655.440	2581.700
655.568	2564.375
655.696	2609.037
655.824	2639.400
655.952	2574.650
656.080	2559.537
656.208	2663.262
656.337	2570.762
656.465	2593.113
656.593	2605.838
656.721	2581.588
656.849	2630.575
656.977	2583.175
657.105	2596.475
657.233	2560.775
657.362	2576.675
657.490	2578.762
657.618	2583.588
657.746	2589.750
657.874	2572.100
658.002	2563.537
658.130	2592.088
658.258	2582.037
658.387	2585.375
658.515	2557.375
658.643	2607.475
658.771	2576.162
658.899	2588.500
659.027	2585.588
659.155	2592.512
659.283	2688.387
659.412	2589.025
659.540	2649.088
659.668	2578.713
659.796	2608.713
659.924	2651.050
660.052	2595.900
660.180	2607.713
660.308	2610.988
660.437	2617.137
660.565	2590.800
660.693	2590.512
660.821	2595.700
660.949	2593.850
661.077	2586.162
661.205	2614.425
661.333	2566.762
661.462	2672.875
661.590	2635.512
661.718	2697.550
661.846	2660.062
661.974	2689.963
662.102	2601.350
662.230	2624.150
662.358	2599.525
662.487	2593.650
662.615	2594.550
662.743	2589.225
662.871	2608.262
662.999	2580.825
663.127	2561.863
663.255	2669.750
663.383	2651.575
663.512	2595.825
663.640	2616.412
663.768	2593.950
663.896	2609.650
664.024	2641.963
664.152	2602.525
664.280	2632.338
664.408	2627.375
664.537	2658.450
664.665	2580.988
664.793	2579.187
664.921	2574.912
665.049	2620.512
665.177	2622.187
665.305	2601.838
665.433	2612.787
665.562	2597.512
665.690	2611.175
665.818	2693.475
665.946	2609.037
666.074	2600.738
666.202	2573.725
666.330	2620.775
666.458	2606.088
666.587	2564.088
666.715	2597.312
666.843	2571.463
666.971	2575.463
667.099	2599.950
667.227	2587.937
667.355	2605.525
667.483	2589.912
667.612	2616.062
667.740	2605.875
667.868	2647.812
667.996	2606.175
668.124	2584.375
668.252	2578.863
668.380	2573.238
668.508	2595.512
668.637	2594.437
668.765	2587.400
668.893	2608.437
669.021	2566.012
669.149	2600.175
669.277	2608.025
669.405	2564.250
669.533	2583.225
669.662	2721.750
669.790	2556.512
669.918	2621.012
670.046	2577.887
670.174	2609.525
670.302	2605.162
670.430	2582.050
670.558	2618.838
670.687	2571.300
670.815	2648.588
670.943	2525.738
671.071	2566.850
671.199	2584.062
671.327	2550.338
671.455	2558.137
671.583	2546.338
671.712	2623.375
671.840	2535.725
671.968	2521.925
672.096	2532.937
672.224	2527.475
672.352	2593.075
672.480	2522.863
672.608	2503.437
672.737	2513.512
672.865	2570.950
672.993	2506.525
673.121	2490.887
673.249	2496.287
673.377	2478.800
673.505	2479.863
673.633	2471.838
673.762	2464.025
673.890	2491.562
674.018	2548.300
674.146	2470.400
674.274	2497.262
674.402	2515.113
674.530	2472.363
674.658	2468.912
674.787	2421.488
674.915	2422.363
675.043	2483.825
675.171	2469.512
675.299	2436.812
675.427	2438.838
675.555	2422.613
675.683	2428.562
675.812	2409.387
675.940	2409.238
676.068	2418.062
676.196	2409.075
676.324	2406.412
676.452	2394.863
676.580	2395.650
676.708	2387.225
676.837	2428.325
676.965	2376.762
677.093	2373.463
677.221	2380.525
677.349	2359.125
677.477	2374.525
677.605	2355.262
677.733	2370.425
677.862	2335.988
677.990	2339.925
678.118	2334.562
678.246	2338.762
678.374	2316.488
678.502	2322.475
678.630	2312.162
678.758	2316.575
678.887	2296.838
679.015	2303.262
679.143	2290.675
679.271	2297.725
679.399	2284.775
679.527	2266.137
679.655	2282.650
679.783	2295.613
679.912	2288.425
680.040	2269.425
680.168	2254.575
680.296	2247.488
680.424	2260.762
680.552	2256.187
680.680	2258.187
680.808	2226.187
680.937	2250.350
681.065	2233.287
681.193	2226.900
681.321	2235.175
681.449	2230.775
681.577	2228.000
681.705	2206.437
681.833	2203.113
681.962	2191.287
682.090	2218.812
682.218	2209.838
682.346	2181.200
682.474	2192.113
682.602	2199.412
682.730	2171.713
682.858	2174.287
682.987	2188.488
683.115	2166.925
683.243	2163.575
683.371	2170.025
683.499	2144.475
683.627	2173.137
683.755	2151.350
683.883	2161.800
684.012	2138.650
684.140	2145.075
684.268	2137.475
684.396	2144.613
684.524	2141.838
684.652	2149.488
684.780	2148.550
684.908	2119.750
685.037	2115.400
685.165	2128.162
685.293	2118.425
685.421	2120.350
685.549	2094.537
685.677	2116.387
685.805	2101.613
685.933	2117.900
686.062	2064.675
686.190	2098.787
686.318	2118.925
686.446	2091.062
686.574	2080.575
686.702	2111.088
686.830	2085.300
686.958	2065.637
687.087	2068.137
687.215	2042.787
687.343	2075.875
687.471	2065.537
687.599	2036.312
687.727	2036.875
687.855	2063.975
687.983	2055.675
688.112	2052.262
688.240	2026.888
688.368	2035.013
688.496	2029.437
688.624	2034.638
688.752	2005.475
688.880	2037.225
689.008	2013.550
689.137	2006.575
689.265	2005.900
689.393	1987.537
689.521	2003.300
689.649	1986.325
689.777	1980.425
689.905	1977.812
690.033	1995.550
690.162	1964.862
690.290	1954.937
690.418	1957.362
690.546	1993.687
690.674	1976.775
690.802	1953.888
690.930	1958.412
691.058	1945.250
691.187	1924.750
691.315	1960.463
691.443	1929.787
691.571	1919.025
691.699	1907.725
691.827	1924.050
691.955	1905.138
692.083	1905.850
692.212	1893.700
692.340	1886.175
692.468	1887.388
692.596	1872.825
692.724	1870.013
692.852	1860.925
692.980	1865.662
693.108	1861.100
693.237	1842.763
693.365	1832.000
693.493	1844.463
693.621	1826.750
693.749	1825.875
693.877	1812.500
694.005	1829.687
694.133	1818.937
694.262	1806.312
694.390	1804.250
694.518	1772.975
694.646	1774.325
694.774	1789.088
694.902	1760.025
695.030	1810.138
695.158	1750.775
695.287	1769.412
695.415	1733.825
695.543	1747.025
695.671	1738.425
695.799	1727.338
695.927	1719.350
696.055	1722.250
696.183	1745.125
696.312	1711.700
696.440	1688.937
696.568	1699.812
696.696	1693.725
696.824	1684.713
696.952	1688.875
697.080	1667.513
697.208	1686.050
697.337	1644.050
697.465	1649.300
697.593	1647.662
697.721	1661.513
697.849	1648.550
697.977	1642.000
698.105	1652.713
698.233	1641.450
698.362	1610.450
698.490	1621.737
698.618	1617.312
698.746	1605.950
698.874	1610.800
699.002	1619.450
699.130	1592.550
699.258	1593.912
699.387	1578.937
699.515	1576.575
699.643	1583.525
699.771	1579.725
699.899	1561.600
700.027	1556.537
700.155	1551.900
700.283	1569.737
700.412	1549.812
700.540	1520.737
700.668	1514.900
700.796	1531.112
700.924	1512.300
701.052	1530.513
701.180	1511.213
701.308	1518.562
701.437	1499.650
701.565	1498.638
701.693	1499.475
701.821	1520.475
701.949	1489.388
702.077	1462.150
702.205	1476.763
702.333	1474.287
702.462	1468.737
702.590	1452.850
702.718	1463.312
702.846	1450.700
702.974	1445.437
703.102	1439.275
703.230	1425.838
703.358	1423.213
703.487	1411.537
703.615	1426.263
703.743	1402.312
703.871	1410.800
703.999	1386.775
704.127	1397.600
704.255	1381.388
704.383	1398.550
704.512	1368.812
704.640	1378.737
704.768	1363.375
704.896	1365.075
705.024	1352.687
705.152	1354.025
705.280	1354.350
705.408	1339.425
705.537	1341.138
705.665	1341.237
705.793	1326.463
705.921	1331.388
706.049	1333.963
706.177	1320.975
706.305	1303.638
706.433	1301.250
706.562	1302.025
706.690	1292.412
706.818	1285.450
706.946	1285.225
707.074	1283.912
707.202	1258.950
707.330	1272.375
707.458	1263.600
707.587	1252.513
707.715	1264.463
707.843	1261.862
707.971	1253.687
708.099	1245.388
708.227	1232.650
708.355	1225.175
708.483	1222.525
708.612	1227.787
708.740	1226.537
708.868	1220.175
708.996	1214.713
709.124	1224.013
709.252	1203.437
709.380	1199.537
709.508	1172.300
709.637	1187.237
709.765	1189.437
709.893	1173.987
710.021	1175.575
710.149	1157.463
710.277	1179.500
710.405	1166.088
710.533	1154.062
710.662	1148.138
710.790	1154.187
710.918	1145.775
711.046	1140.925
711.174	1153.588
711.302	1129.187
711.430	1125.575
711.558	1135.037
711.687	1122.025
711.815	1120.000
711.943	1126.513
712.071	1105.225
712.199	1107.537
712.327	1105.037
712.455	1104.125
712.583	1097.400
712.712	1114.650
712.840	1093.000
712.968	1080.187
713.096	1089.787
713.224	1065.175
713.352	1069.625
713.480	1071.412
713.608	1073.150
713.737	1055.237
713.865	1047.312
713.993	1046.550
714.121	1057.325
714.249	1050.600
714.377	1032.900
714.505	1049.138
714.633	1033.875
714.762	1024.325
714.890	1029.700
715.018	1015.087
715.146	1015.337
715.274	1017.038
715.402	1004.538
715.530	1018.100
715.658	986.312
715.787	1007.788
715.915	999.937
716.043	986.212
716.171	999.163
716.299	1014.700
716.427	994.400
716.555	991.437
716.683	976.600
716.812	969.275
716.940	971.038
717.068	950.737
717.196	966.437
717.324	962.225
717.452	956.900
717.580	948.225
717.708	943.763
717.837	940.812
717.965	947.225
718.093	935.862
718.221	928.587
718.349	925.625
718.477	918.775
718.605	911.575
718.733	924.275
718.862	907.075
718.990	914.375
719.118	908.425
719.246	900.487
719.374	903.362
719.502	901.138
719.630	904.075
719.758	898.250
719.887	887.975
720.015	892.400
720.143	879.737
720.271	879.775
720.399	872.500
720.527	867.400
720.655	861.175
720.783	865.513
720.912	860.362
721.040	862.275
721.168	858.475
721.296	855.187
721.424	849.650
721.552	857.112
721.680	841.050
721.808	844.413
721.937	846.013
722.065	829.487
722.193	820.138
722.321	836.075
722.449	830.087
722.577	824.712
722.705	812.837
722.833	805.875
722.962	808.263
723.090	792.700
723.218	798.388
723.346	793.337
723.474	801.888
723.602	794.800
723.730	788.413
723.858	785.337
723.987	788.962
724.115	766.337
724.243	772.300
724.371	780.312
724.499	780.913
724.627	771.575
724.755	766.075
724.883	775.937
725.012	755.050
725.140	749.962
725.268	757.675
725.396	748.837
725.524	741.100
725.652	749.925
725.780	742.900
725.908	730.050
726.037	733.700
726.165	728.900
726.293	722.087
726.421	715.513
726.549	721.075
726.677	723.612
726.805	718.087
726.933	713.487
727.062	702.388
727.190	699.288
727.318	700.237
727.446	703.187
727.574	710.450
727.702	695.200
727.830	684.450
727.958	696.587
728.087	687.825
728.215	678.125
728.343	680.888
728.471	679.125
728.599	670.837
728.727	675.038
728.855	670.987
728.983	670.150
729.112	666.575
729.240	668.475
729.368	657.400
729.496	654.425
729.624	659.962
729.752	650.538
729.880	650.925
730.008	645.350
730.137	643.500
730.265	649.612
730.393	639.825
730.521	639.575
730.649	643.812
730.777	634.675
730.905	626.663
731.033	626.862
731.162	617.337
731.290	631.400
731.418	620.712
731.546	639.150
731.674	611.212
731.802	598.212
731.930	617.712
732.058	601.937
732.187	621.625
732.315	601.900
732.443	609.175
732.571	593.200
732.699	590.312
732.827	598.812
732.955	585.900
733.083	590.125
733.212	585.250
733.340	584.850
733.468	590.187
733.596	581.187
733.724	572.950
733.852	573.587
733.980	571.450
734.108	583.050
734.237	575.525
734.365	567.275
734.493	566.187
734.621	559.862
734.749	564.800
734.877	557.263
735.005	557.750
735.133	566.737
735.262	558.987
735.390	553.900
735.518	553.962
735.646	542.337
735.774	548.525
735.902	538.700
736.030	547.413
736.158	558.187
736.287	534.875
736.415	537.337
736.543	530.875
736.671	525.075
736.799	527.337
736.927	541.538
737.055	530.812
737.183	532.038
737.312	526.663
737.440	522.737
737.568	539.587
737.696	526.062
737.824	516.962
737.952	520.275
738.080	522.362
738.208	525.888
738.337	508.075
738.465	519.750
738.593	510.462
738.721	498.725
738.849	507.050
738.977	500.387
739.105	505.212
739.233	497.738
739.362	500.575
739.490	493.775
739.618	499.625
739.746	494.712
739.874	498.450
740.002	487.325
740.130	483.575
740.258	481.625
740.387	482.325
740.515	473.538
740.643	482.562
740.771	481.425
740.899	474.837
741.027	470.863
741.155	474.863
741.283	467.538
741.412	477.712
741.540	469.275
741.668	467.187
741.796	465.512
741.924	473.663
742.052	465.100
742.180	455.137
742.308	461.863
742.437	460.975
742.565	465.550
742.693	466.238
742.821	449.087
742.949	448.937
743.077	451.712
743.205	456.250
743.333	449.750
743.462	452.837
743.590	448.087
743.718	440.600
743.846	440.800
743.974	436.312
744.102	431.038
744.230	434.675
744.358	433.712
744.487	442.437
744.615	430.975
744.743	430.275
744.871	425.325
744.999	434.937
745.127	416.950
745.255	416.625
745.383	425.437
745.512	419.562
745.640	415.100
745.768	415.613
745.896	416.175
746.024	410.400
746.152	411.250
746.280	414.425
746.408	417.550
746.537	409.500
746.665	412.975
746.793	404.275
746.921	401.012
747.049	404.775
747.177	404.687
747.305	390.750
747.433	398.050
747.562	394.025
747.690	393.175
747.818	394.613
747.946	394.863
748.074	405.575
748.202	388.475
748.330	385.425
748.458	392.137
748.587	384.050
748.715	380.425
748.843	387.875
748.971	380.913
749.099	376.525
749.227	378.000
749.355	374.800
749.483	379.950
749.612	373.937
749.740	372.750
749.868	372.125
749.996	370.937
750.124	370.350
750.252	369.687
750.380	372.025
750.508	369.238
750.637	357.087
750.765	363.587
750.893	364.788
751.021	357.050
751.149	358.187
751.277	366.762
751.405	357.425
751.533	365.637
751.662	362.187
751.790	373.238
751.918	363.475
752.046	347.400
752.174	345.450
752.302	356.000
752.430	349.863
752.558	342.137
752.687	345.163
752.815	356.012
752.943	345.512
753.071	339.225
753.199	339.363
753.327	349.738
753.455	340.012
753.583	332.725
753.712	344.413
753.840	334.587
753.968	336.975
754.096	334.025
754.224	332.363
754.352	330.062
754.480	330.250
754.608	324.587
754.737	329.750
754.865	326.738
754.993	329.275
755.121	319.725
755.249	327.363
755.377	319.100
755.505	318.387
755.633	334.050
755.762	318.988
755.890	325.950
756.018	318.837
756.146	311.413
756.274	314.937
756.402	311.863
756.530	308.837
756.658	318.275
756.787	315.038
756.915	302.600
757.043	309.575
757.171	307.387
757.299	304.387
757.427	310.687
757.555	304.575
757.683	309.550
757.812	302.100
757.940	308.050
758.068	301.962
758.196	290.113
758.324	294.337
758.452	295.275
758.580	295.300
758.708	296.062
758.837	290.575
758.965	304.863
759.093	293.988
759.221	286.837
759.349	294.012
759.477	287.512
759.605	284.325
759.733	285.875
759.862	289.587
759.990	279.725
760.118	285.337
760.246	277.200
760.374	284.825
760.502	279.562
760.630	276.312
760.758	271.538
760.887	268.375
761.015	275.038
761.143	272.113
761.271	271.087
761.399	272.113
761.527	271.363
761.655	271.850
761.783	270.887
761.912	265.375
762.040	267.950
762.168	271.850
762.296	264.437
762.424	257.500
762.552	259.225
762.680	271.025
762.808	263.525
762.937	265.150
763.065	262.375
763.193	258.775
763.321	258.512
763.449	251.537
763.577	257.837
763.705	257.363
763.833	275.988
763.962	258.100
764.090	252.463
764.218	254.187
764.346	255.000
764.474	250.437
764.602	251.488
764.730	248.425
764.858	248.900
764.987	249.262
765.115	255.687
765.243	258.725
765.371	243.075
765.499	237.450
765.627	239.575
765.755	240.912
765.883	238.125
766.012	244.312
766.140	237.137
766.268	242.338
766.396	235.675
766.524	228.387
766.652	234.650
766.780	235.075
766.908	237.925
767.037	236.088
767.165	230.775
767.293	239.437
767.421	234.637
767.549	228.600
767.677	236.850
767.805	224.162
767.933	234.137
768.062	230.575
768.190	227.700
768.318	223.512
768.446	237.262
768.574	233.225
768.702	231.525
768.830	225.550
768.958	222.925
769.087	228.350
769.215	220.512
769.343	217.025
769.471	223.675
769.599	226.900
769.727	218.588
769.855	223.000
769.983	218.200
770.112	220.537
770.240	221.037
770.368	217.687
770.496	213.537
770.624	212.637
770.752	217.113
770.880	226.662
771.008	211.000
771.137	213.912
771.265	212.475
771.393	213.325
771.521	214.838
771.649	211.562
771.777	211.100
771.905	208.975
772.033	214.000
772.162	213.150
772.290	211.175
772.418	218.787
772.546	202.375
772.674	210.125
772.802	211.100
772.930	208.125
773.058	201.238
773.187	210.437
773.315	206.287
773.443	206.887
773.571	201.363
773.699	198.750
773.827	194.787
773.955	210.625
774.083	217.475
774.212	201.000
774.340	201.025
774.468	200.350
774.596	199.588
774.724	205.025
774.852	191.600
774.980	197.525
775.108	195.512
775.237	190.575
775.365	191.650
775.493	194.738
775.621	196.588
775.749	197.437
775.877	196.950
776.005	190.325
776.133	196.762
776.262	197.162
776.390	186.200
776.518	198.887
776.646	187.537
776.774	189.363
776.902	192.512
777.030	190.062
777.158	191.662
777.287	186.562
777.415	187.325
777.543	192.463
777.671	186.537
777.799	179.963
777.927	190.687
778.055	193.787
778.183	190.200
778.312	184.162
778.440	177.312
778.568	187.012
778.696	180.675
778.824	187.625
778.952	183.200
779.080	180.988
779.208	187.137
779.337	183.662
779.465	185.062
779.593	181.900
779.721	187.113
779.849	180.338
779.977	183.100
780.105	177.412
780.233	185.113
780.362	184.262
780.490	181.200
780.618	175.037
780.746	176.800
780.874	175.312
781.002	172.400
781.130	174.975
781.258	176.475
781.387	174.650
781.515	176.700
781.643	174.300
781.771	178.912
781.899	177.900
782.027	177.412
782.155	168.187
782.283	170.025
782.412	173.988
782.540	178.937
782.668	172.350
782.796	163.238
782.924	172.738
783.052	162.925
783.180	173.950
783.308	166.975
783.437	172.162
783.565	172.525
783.693	171.863
783.821	174.537
783.949	168.338
784.077	169.562
784.205	168.550
784.333	175.062
784.462	161.525
784.590	171.425
784.718	167.787
784.846	160.988
784.974	168.437
785.102	173.838
785.230	165.963
785.358	177.113
785.487	165.075
785.615	167.750
785.743	161.425
785.871	159.387
785.999	164.575
786.127	156.162
786.255	168.812
786.383	169.950
786.512	158.637
786.640	160.037
786.768	170.238
786.896	158.238
787.024	162.662
787.152	157.100
787.280	155.062
787.408	156.937
787.537	160.537
787.665	154.600
787.793	160.988
787.921	158.500
788.049	154.937
788.177	153.912
788.305	151.363
788.433	160.475
788.562	156.250
788.690	154.100
788.818	153.137
788.946	154.200
789.074	150.725
789.202	155.825
789.330	153.625
789.458	155.937
789.587	152.975
789.715	154.863
789.843	153.575
789.971	151.225
790.099	147.012
790.227	153.787
790.355	149.000
790.483	158.025
790.612	151.988
790.740	150.050
790.868	160.325
790.996	150.363
791.124	153.550
791.252	149.725
791.380	150.687
791.508	147.175
791.637	158.125
791.765	143.113
791.893	146.675
792.021	156.562
792.149	146.062
792.277	148.537
792.405	146.525
792.533	155.238
792.662	140.787
792.790	147.575
792.918	154.713
793.046	141.912
793.174	145.738
793.302	147.963
793.430	147.975
793.558	155.012
793.687	145.450
793.815	144.863
793.943	149.625
794.071	144.925
794.199	140.025
794.327	146.425
794.455	163.625
794.583	158.687
794.712	148.662
794.840	142.262
794.968	145.213
795.096	146.412
795.224	142.525
795.352	138.363
795.480	144.262
795.608	142.738
795.737	146.887
795.865	146.812
795.993	138.450
796.121	140.450
796.249	144.662
796.377	138.975
796.505	143.600
796.633	141.537
796.762	137.425
796.890	150.375
797.018	140.412
797.146	138.238
797.274	135.050
797.402	138.812
797.530	139.613
797.658	140.113
797.787	148.463
797.915	138.162
798.043	142.350
798.171	142.088
798.299	139.200
798.427	138.062
798.555	142.325
798.683	140.187
798.812	137.725
798.940	137.375
799.068	140.025
799.196	142.912
799.324	131.738
799.452	144.488
799.580	134.113
799.708	147.412
799.837	135.312
799.965	134.387
800.093	134.250
800.221	136.250
800.349	133.912
800.477	133.988
800.605	133.850
800.733	138.937
800.862	137.750
800.990	148.250
801.118	140.325
801.246	133.213
801.374	135.400
801.502	139.012
801.630	128.387
801.758	135.675
801.887	137.512
802.015	132.425
802.143	132.812
802.271	135.512
802.399	136.738
802.527	135.875
802.655	133.412
802.783	139.575
802.912	136.300
803.040	130.675
803.168	129.625
803.296	128.387
803.424	133.675
803.552	131.162
803.680	127.312
803.808	134.912
803.937	129.900
804.065	130.963
804.193	128.562
804.321	140.662
804.449	127.888
804.577	126.300
804.705	132.687
804.833	127.237
804.962	131.887
805.090	127.850
805.218	135.937
805.346	128.675
805.474	129.412
805.602	143.463
805.730	127.612
805.858	124.650
805.987	138.488
806.115	131.525
806.243	127.437
806.371	124.187
806.499	126.625
806.627	124.487
806.755	134.537
806.883	127.925
807.012	126.513
807.140	128.162
807.268	122.888
807.396	132.213
807.524	123.662
807.652	127.875
807.780	144.713
807.908	124.487
808.037	135.113
808.165	128.950
808.293	127.975
808.421	138.662
808.549	124.250
808.677	120.525
808.805	133.125
808.933	120.950
809.062	127.400
809.190	143.725
809.318	126.562
809.446	124.963
809.574	122.525
809.702	125.513
809.830	124.550
809.958	128.525
810.087	122.138
810.215	135.125
810.343	132.700
810.471	129.113
810.599	121.500
810.727	121.425
810.855	117.312
810.983	125.275
811.112	124.138
811.240	121.425
811.368	124.525
811.496	133.838
811.624	126.950
811.752	122.150
811.880	119.287
812.008	118.562
812.137	120.725
812.265	121.963
812.393	127.612
812.521	124.525
812.649	126.812
812.777	124.050
812.905	122.937
813.033	118.838
813.162	119.475
813.290	117.763
813.418	129.187
813.546	119.875
813.674	119.237
813.802	123.237
813.930	120.225
814.058	114.725
814.187	117.812
814.315	122.687
814.443	121.612
814.571	117.650
814.699	123.987
814.827	121.237
814.955	125.862
815.083	121.550
815.212	122.213
815.340	118.388
815.468	115.625
815.596	119.937
815.724	121.838
815.852	124.350
815.980	116.112
816.108	119.150
816.237	119.800
816.365	121.388
816.493	118.150
816.621	115.025
816.749	117.500
816.877	120.737
817.005	119.912
817.133	117.150
817.262	116.550
817.390	123.213
817.518	116.463
817.646	120.375
817.774	117.112
817.902	122.437
818.030	116.763
818.158	122.650
818.287	119.850
818.415	112.750
818.543	116.888
818.671	118.362
818.799	116.237
818.927	120.287
819.055	111.713
819.183	113.463
819.312	116.687
819.440	117.237
819.568	115.925
819.696	123.500
819.824	124.888
819.952	115.763
820.080	116.263
820.208	116.525
820.337	115.700
820.465	115.487
820.593	118.237
820.721	116.425
820.849	113.600
820.977	114.487
821.105	115.300
821.233	111.950
821.362	119.187
821.490	115.687
821.618	113.888
821.746	116.388
821.874	115.937
822.002	114.825
822.130	119.013
822.258	111.638
822.387	114.975
822.515	114.237
822.643	115.250
822.771	112.625
822.899	116.513
823.027	114.487
823.155	110.625
823.283	114.437
823.412	116.075
823.540	116.875
823.668	134.537
823.796	112.237
823.924	119.050
824.052	119.950
824.180	112.138
824.308	112.250
824.437	114.138
824.565	111.450
824.693	117.437
824.821	114.662
824.949	116.737
825.077	114.625
825.205	119.213
825.333	116.162
825.462	113.513
825.590	110.675
825.718	119.350
825.846	113.350
825.974	115.963
826.102	117.175
826.230	112.687
826.358	115.187
826.487	117.175
826.615	114.263
826.743	111.263
826.871	116.287
826.999	114.000
827.127	115.362
827.255	111.787
827.383	110.112
827.512	115.275
827.640	114.175
827.768	111.263
827.896	113.625
828.024	113.737
828.152	113.575
828.280	112.625
828.408	113.500
828.537	114.125
828.665	115.588
828.793	112.900
828.921	109.625
829.049	108.562
829.177	111.287
829.305	109.562
829.433	110.362
829.562	111.250
829.690	113.862
829.818	113.963
829.946	110.275
830.074	109.650
830.202	114.812
830.330	114.275
830.458	119.925
830.587	111.388
830.715	110.263
830.843	110.650
830.971	111.263
831.099	113.550
831.227	108.987
831.355	109.175
831.483	110.550
831.612	112.650
831.740	108.900
831.868	122.187
831.996	111.088
832.124	112.112
832.252	107.075
832.380	111.475
832.508	112.338
832.637	111.487
832.765	112.987
832.893	116.000
833.021	114.263
833.149	111.612
833.277	110.675
833.405	109.312
833.533	107.450
833.662	109.612
833.790	113.213
833.918	112.725
834.046	113.263
834.174	114.100
834.302	109.463
834.430	108.513
834.558	115.888
834.687	108.600
834.815	107.100
834.943	110.338
835.071	108.037
835.199	110.350
835.327	114.062
835.455	109.812
835.583	112.225
835.712	108.412
835.840	111.400
835.968	110.750
836.096	110.825
836.224	112.287
836.352	110.500
836.480	112.838
836.608	117.125
836.737	108.475
836.865	107.013
836.993	108.200
837.121	108.862
837.249	107.713
837.377	112.175
837.505	111.750
837.633	110.500
837.762	108.912
837.890	108.013
838.018	114.362
838.146	109.812
838.274	113.325
838.402	115.088
838.530	107.075
838.658	104.737
838.787	110.237
838.915	109.375
839.043	111.050
839.171	116.400
839.299	110.612
839.427	109.088
839.555	117.338
839.683	110.975
839.812	113.850
839.940	106.787
840.068	111.437
840.196	107.562
840.324	111.713
840.452	112.838
840.580	114.588
840.708	114.812
840.837	117.675
840.965	109.825
841.093	113.362
841.221	110.937
841.349	109.550
841.477	111.325
841.605	109.500
841.733	107.400
841.862	108.325
841.990	112.213
842.118	110.200
842.246	107.275
842.374	105.900
842.502	108.287
842.630	107.475
842.758	111.200
842.887	110.700
843.015	112.325
843.143	111.312
843.271	111.575
843.399	110.500
843.527	106.800
843.655	108.388
843.783	107.600
843.912	108.150
844.040	111.300
844.168	114.937
844.296	113.500
844.424	111.575
844.552	110.325
844.680	113.862
844.808	112.912
844.937	109.463
845.065	103.650
845.193	111.800
845.321	111.550
845.449	108.300
845.577	108.487
845.705	109.187
845.833	108.937
845.962	108.312
846.090	107.838
846.218	108.787
846.346	111.600
846.474	109.437
846.602	107.312
846.730	107.675
846.858	106.475
846.987	107.937
847.115	109.513
847.243	112.250
847.371	114.362
847.499	108.025
847.627	106.800
847.755	106.700
847.883	107.600
848.012	108.225
848.140	108.375
848.268	107.100
848.396	107.200
848.524	108.888
848.652	109.187
848.780	106.800
848.908	111.437
849.037	109.888
849.165	107.812
849.293	109.725
849.421	114.138
849.549	109.638
849.677	109.638
849.805	114.825
849.933	110.875
850.062	108.700
850.190	107.275
850.318	111.950
850.446	109.612
850.574	106.638
850.702	106.013
850.830	107.612
850.958	114.475
851.087	110.287
851.215	116.187
851.343	109.400
851.471	108.725
851.599	109.500
851.727	109.287
851.855	108.750
851.983	109.013
852.112	108.725
852.240	111.013
852.368	107.963
852.496	104.825
852.624	106.713
852.752	109.825
852.880	106.775
853.008	108.050
853.137	113.675
853.265	108.588
853.393	108.975
853.521	113.338
853.649	114.300
853.777	108.525
853.905	107.763
854.033	106.775
854.162	109.200
854.290	106.662
854.418	106.375
854.546	106.537
854.674	107.213
854.802	107.000
854.930	107.900
855.058	106.388
855.187	104.362
855.315	106.537
855.443	105.888
855.571	105.450
855.699	105.650
855.827	107.400
855.955	108.138
856.083	108.588
856.212	108.437
856.340	107.325
856.468	114.463
856.596	110.225
856.724	109.125
856.852	107.750
856.980	109.325
857.108	110.600
857.237	109.287
857.365	108.487
857.493	109.375
857.621	105.625
857.749	108.062
857.877	112.875
858.005	111.050
858.133	109.025
858.262	107.888
858.390	107.000
858.518	105.612
858.646	108.588
858.774	107.237
858.902	107.037
859.030	107.400
859.158	106.150
859.287	109.150
859.415	107.862
859.543	106.287
859.671	108.487
859.799	110.437
859.927	110.412
860.055	110.425
860.183	106.987
860.312	110.037
860.440	108.200
860.568	111.900
860.696	106.925
860.824	118.112
860.952	110.338
861.080	108.737
861.208	109.550
861.337	109.250
861.465	107.937
861.593	113.325
861.721	108.112
861.849	107.175
861.977	106.963
862.105	106.975
862.233	104.987
862.362	108.950
862.490	107.638
862.618	105.925
862.746	106.775
862.874	106.888
863.002	108.763
863.130	110.950
863.258	110.013
863.387	109.362
863.515	109.013
863.643	106.675
863.771	107.125
863.899	108.463
864.027	107.850
864.155	104.575
864.283	105.950
864.412	106.112
864.540	105.950
864.668	105.612
864.796	106.013
864.924	106.088
865.052	112.125
865.180	107.550
865.308	101.950
865.437	104.025
865.565	105.350
865.693	108.162
865.821	108.562
865.949	107.725
866.077	107.000
866.205	106.075
866.333	111.150
866.462	109.437
866.590	105.088
866.718	108.362
866.846	109.925
866.974	111.487
867.102	112.112
867.230	106.225
867.358	110.150
867.487	108.037
867.615	107.100
867.743	106.687
867.871	109.912
867.999	108.125
868.127	108.625
868.255	117.725
868.383	113.213
868.512	107.812
868.640	105.862
868.768	107.388
868.896	105.450
869.024	109.513
869.152	114.763
869.280	107.325
869.408	107.487
869.537	105.225
869.665	106.662
869.793	108.263
869.921	112.000
870.049	109.250
870.177	110.537
870.305	120.088
870.433	110.513
870.562	105.312
870.690	106.162
870.818	107.487
870.946	106.300
871.074	106.225
871.202	106.662
871.330	106.025
871.458	104.500
871.587	107.862
871.715	104.350
871.843	108.412
871.971	108.975
872.099	109.825
872.227	108.537
872.355	106.287
872.483	106.625
872.612	109.050
872.740	108.687
872.868	104.937
872.996	110.025
873.124	111.612
873.252	112.463
873.380	106.662
873.508	106.713
873.637	106.162
873.765	107.588
873.893	106.888
874.021	108.125
874.149	108.375
874.277	107.013
874.405	111.112
874.533	107.350
874.662	335.900
874.790	112.412
874.918	111.263
875.046	111.013
875.174	108.925
875.302	108.000
875.430	107.025
875.558	109.375
875.687	111.525
875.815	108.950
875.943	106.862
876.071	110.950
876.199	109.000
876.327	117.200
876.455	108.187
876.583	107.375
876.712	109.275
876.840	109.437
876.968	106.513
877.096	107.338
877.224	105.187
877.352	104.213
877.480	106.562
877.608	107.138
877.737	105.838
877.865	105.650
877.993	107.825
878.121	104.700
878.249	107.475
878.377	106.150
878.505	108.437
878.633	107.338
878.762	107.650
878.890	110.925
879.018	106.612
879.146	109.025
879.274	107.300
879.402	109.650
879.530	108.287
879.658	109.650
879.787	110.088
879.915	109.000
880.043	106.237
880.171	105.612
880.299	106.812
880.427	110.175
880.555	110.338
880.683	110.625
880.812	108.412
880.940	109.112
881.068	108.963
881.196	108.763
881.324	108.500
881.452	106.638
881.580	106.400
881.708	106.963
881.837	107.138
881.965	108.900
882.093	105.675
882.221	104.400
882.349	111.675
882.477	110.812
882.605	112.338
882.733	109.100
882.862	106.525
882.990	106.037
883.118	107.088
883.246	110.687
883.374	106.588
883.502	103.362
883.630	104.912
883.758	107.050
883.887	107.237
884.015	106.213
884.143	106.675
884.271	109.400
884.399	107.950
884.527	104.650
884.655	107.425
884.783	110.963
884.912	107.050
885.040	106.312
885.168	107.588
885.296	106.888
885.424	105.625
885.552	111.763
885.680	105.513
885.808	105.850
885.937	110.100
886.065	107.713
886.193	107.537
886.321	106.787
886.449	107.400
886.577	106.325
886.705	105.400
886.833	106.687
886.962	106.437
887.090	108.800
887.218	110.325
887.346	109.062
887.474	115.325
887.602	111.525
887.730	109.263
887.858	106.700
887.987	110.125
888.115	116.737
888.243	110.562
888.371	108.975
888.499	109.450
888.627	107.375
888.755	106.225
888.883	105.725
889.012	106.237
889.140	106.675
889.268	115.700
889.396	111.825
889.524	105.775
889.652	107.950
889.780	107.650
889.908	107.187
890.037	108.787
890.165	107.300
890.293	108.987
890.421	107.650
890.549	110.088
890.677	110.162
890.805	107.125
890.933	107.013
891.062	107.213
891.190	111.000
891.318	111.750
891.446	110.662
891.574	106.537
891.702	107.138
891.830	106.987
891.958	109.463
892.087	116.550
892.215	112.100
892.343	107.800
892.471	108.900
892.599	109.125
892.727	111.300
892.855	109.513
892.983	110.338
893.112	109.713
893.240	108.963
893.368	108.825
893.496	107.062
893.624	108.112
893.752	112.125
893.880	114.775
894.008	108.150
894.137	111.275
894.265	109.375
894.393	112.350
894.521	110.187
894.649	108.950
894.777	106.925
894.905	108.562
895.033	114.338
895.162	111.650
895.290	110.138
895.418	110.388
895.546	111.362
895.674	117.100
895.802	109.437
895.930	109.112
896.058	107.700
896.187	108.725
896.315	108.575
896.443	109.213
896.571	109.250
896.699	107.300
896.827	107.862
896.955	111.850
897.083	113.037
897.212	110.800
897.340	106.388
897.468	109.612
897.596	109.388
897.724	108.825
897.852	114.487
897.980	109.425
898.108	106.650
898.237	105.925
898.365	106.162
898.493	108.213
898.621	110.525
898.749	106.175
898.877	110.088
899.005	109.612
899.133	108.175
899.262	110.225
899.390	109.963
899.518	106.612
899.646	109.638
899.774	116.237
899.902	122.425
900.030	111.250
900.158	109.287
900.287	113.325
900.415	108.500
900.543	106.700
900.671	113.750
900.799	109.475
900.927	111.687
901.055	107.312
901.183	109.213
901.312	106.388
901.440	110.150
901.568	113.800
901.696	111.812
901.824	109.362
901.952	114.575
902.080	109.737
902.208	110.888
902.337	110.263
902.465	112.112
902.593	110.300
902.721	111.312
902.849	111.112
902.977	112.550
903.105	118.075
903.233	121.037
903.362	111.150
903.490	109.975
903.618	107.888
903.746	116.975
903.874	107.338
904.002	108.900
904.130	114.575
904.258	112.175
904.387	109.850
904.515	107.162
904.643	108.638
904.771	110.700
904.899	113.550
905.027	110.475
905.155	107.475
905.283	106.325
905.412	118.775
905.540	114.025
905.668	110.037
905.796	107.325
905.924	110.325
906.052	108.662
906.180	110.775
906.308	115.575
906.437	112.700
906.565	112.162
906.693	107.925
906.821	108.075
906.949	108.112
907.077	111.537
907.205	113.450
907.333	110.912
907.462	110.187
907.590	112.463
907.718	113.562
907.846	110.675
907.974	110.625
908.102	109.375
908.230	111.562
908.358	114.500
908.487	113.725
908.615	111.175
908.743	113.388
908.871	122.700
908.999	111.862
909.127	110.875
909.255	108.463
909.383	109.912
909.512	114.300
909.640	110.475
909.768	114.500
909.896	120.875
910.024	115.225
910.152	112.900
910.280	124.362
910.408	114.075
910.537	111.600
910.665	114.562
910.793	115.050
910.921	116.737
911.049	114.175
911.177	110.537
911.305	116.187
911.433	114.600
911.562	112.338
911.690	108.213
911.818	122.875
911.946	116.412
912.074	115.362
912.202	122.513
912.330	114.013
912.458	116.138
912.587	115.200
912.715	114.537
912.843	117.612
912.971	115.963
913.099	118.050
913.227	115.662
913.355	116.562
913.483	113.875
913.612	113.537
913.740	129.937
913.868	119.162
