sample6_PP_at_750.00nm_cut_at_1008.00Y_01.dat
15.05.2023
11:02:57
cut middle at Y: 1008.00
top cursor: 1048 down cursor: 968 mean of: 80 lines , 2560 datapoints
wavelength(nm)	intensity[arb. units]
585.996	1041.050
586.124	1025.300
586.252	1015.888
586.380	1024.812
586.508	1023.550
586.637	1028.775
586.765	1026.100
586.893	1040.575
587.021	1045.300
587.149	1042.338
587.277	1033.037
587.405	1043.187
587.533	1035.650
587.662	1063.437
587.790	1062.825
587.918	1051.625
588.046	1043.862
588.174	1040.675
588.302	1046.263
588.430	1044.525
588.558	1041.375
588.687	1050.463
588.815	1076.812
588.943	1051.275
589.071	1053.525
589.199	1066.850
589.327	1057.925
589.455	1045.338
589.583	1048.687
589.712	1064.463
589.840	1063.550
589.968	1048.963
590.096	1049.937
590.224	1058.037
590.352	1056.150
590.480	1069.737
590.608	1070.388
590.737	1056.437
590.865	1069.275
590.993	1060.425
591.121	1067.525
591.249	1073.400
591.377	1061.037
591.505	1060.200
591.633	1062.763
591.762	1072.138
591.890	1067.550
592.018	1071.412
592.146	1071.575
592.274	1070.362
592.402	1071.987
592.530	1066.437
592.658	1085.412
592.787	1069.937
592.915	1078.550
593.043	1075.862
593.171	1088.112
593.299	1097.437
593.427	1086.100
593.555	1089.638
593.683	1077.225
593.812	1093.112
593.940	1100.912
594.068	1092.338
594.196	1111.475
594.324	1088.662
594.452	1104.737
594.580	1110.000
594.708	1104.287
594.837	1111.937
594.965	1120.050
595.093	1118.112
595.221	1121.987
595.349	1118.263
595.477	1121.175
595.605	1117.487
595.733	1152.237
595.862	1133.550
595.990	1125.350
596.118	1130.300
596.246	1143.888
596.374	1154.875
596.502	1161.850
596.630	1141.475
596.758	1150.687
596.887	1151.963
597.015	1158.100
597.143	1145.725
597.271	1150.525
597.399	1145.550
597.527	1164.263
597.655	1162.425
597.783	1166.287
597.912	1152.662
598.040	1162.487
598.168	1163.375
598.296	1155.625
598.424	1157.638
598.552	1160.263
598.680	1143.250
598.808	1157.937
598.937	1152.437
599.065	1163.750
599.193	1161.125
599.321	1154.975
599.449	1170.175
599.577	1152.338
599.705	1155.987
599.833	1157.737
599.962	1140.525
600.090	1155.562
600.218	1159.775
600.346	1161.200
600.474	1167.838
600.602	1170.088
600.730	1170.625
600.858	1183.062
600.987	1162.013
601.115	1157.237
601.243	1148.250
601.371	1169.825
601.499	1182.013
601.627	1178.100
601.755	1182.112
601.883	1174.075
602.012	1188.600
602.140	1175.763
602.268	1185.075
602.396	1182.263
602.524	1201.325
602.652	1189.437
602.780	1191.125
602.908	1210.437
603.037	1197.737
603.165	1213.487
603.293	1217.562
603.421	1220.425
603.549	1210.450
603.677	1244.150
603.805	1213.862
603.933	1221.713
604.062	1226.525
604.190	1249.138
604.318	1214.088
604.446	1250.162
604.574	1249.237
604.702	1240.825
604.830	1250.075
604.958	1251.875
605.087	1271.675
605.215	1263.775
605.343	1267.350
605.471	1266.250
605.599	1276.612
605.727	1279.912
605.855	1284.037
605.983	1276.013
606.112	1296.225
606.240	1303.687
606.368	1289.562
606.496	1307.875
606.624	1288.650
606.752	1303.912
606.880	1301.237
607.008	1308.825
607.137	1313.862
607.265	1317.475
607.393	1323.612
607.521	1316.925
607.649	1303.000
607.777	1303.625
607.905	1294.237
608.033	1314.300
608.162	1313.713
608.290	1323.388
608.418	1326.925
608.546	1328.838
608.674	1337.400
608.802	1320.375
608.930	1328.375
609.058	1332.638
609.187	1337.050
609.315	1320.412
609.443	1325.275
609.571	1338.525
609.699	1329.412
609.827	1321.625
609.955	1335.713
610.083	1329.575
610.212	1326.138
610.340	1327.162
610.468	1334.463
610.596	1335.650
610.724	1330.513
610.852	1339.888
610.980	1328.825
611.108	1337.125
611.237	1332.062
611.365	1347.362
611.493	1336.725
611.621	1351.225
611.749	1340.400
611.877	1350.250
612.005	1353.237
612.133	1346.675
612.262	1347.100
612.390	1347.912
612.518	1359.287
612.646	1359.537
612.774	1346.575
612.902	1361.162
613.030	1366.338
613.158	1363.287
613.287	1404.013
613.415	1380.888
613.543	1380.937
613.671	1383.713
613.799	1390.588
613.927	1378.513
614.055	1394.612
614.183	1402.300
614.312	1393.787
614.440	1393.750
614.568	1399.912
614.696	1410.888
614.824	1403.700
614.952	1413.312
615.080	1416.450
615.208	1412.575
615.337	1423.612
615.465	1427.362
615.593	1449.037
615.721	1425.588
615.849	1448.100
615.977	1454.112
616.105	1442.237
616.233	1436.588
616.362	1460.275
616.490	1449.025
616.618	1464.325
616.746	1457.375
616.874	1480.425
617.002	1468.050
617.130	1490.250
617.258	1480.838
617.387	1476.675
617.515	1493.687
617.643	1493.250
617.771	1498.763
617.899	1499.525
618.027	1497.950
618.155	1503.925
618.283	1498.150
618.412	1497.525
618.540	1509.263
618.668	1506.275
618.796	1506.937
618.924	1505.500
619.052	1511.800
619.180	1511.600
619.308	1526.725
619.437	1512.550
619.565	1516.312
619.693	1514.900
619.821	1513.888
619.949	1504.237
620.077	1521.412
620.205	1526.213
620.333	1533.725
620.462	1538.200
620.590	1540.350
620.718	1541.338
620.846	1533.075
620.974	1577.562
621.102	1535.550
621.230	1548.412
621.358	1563.737
621.487	1557.425
621.615	1550.537
621.743	1570.950
621.871	1552.838
621.999	1561.100
622.127	1560.500
622.255	1556.825
622.383	1559.050
622.512	1557.575
622.640	1563.775
622.768	1554.100
622.896	1562.763
623.024	1554.325
623.152	1583.225
623.280	1539.187
623.408	1563.138
623.537	1570.925
623.665	1571.388
623.793	1576.838
623.921	1568.162
624.049	1566.638
624.177	1588.812
624.305	1585.500
624.433	1580.300
624.562	1584.925
624.690	1573.700
624.818	1590.075
624.946	1606.050
625.074	1595.388
625.202	1614.250
625.330	1589.513
625.458	1591.150
625.587	1610.950
625.715	1599.950
625.843	1592.850
625.971	1614.475
626.099	1619.937
626.227	1618.562
626.355	1602.225
626.483	1613.213
626.612	1614.675
626.740	1606.987
626.868	1626.000
626.996	1613.737
627.124	1613.425
627.252	1603.800
627.380	1630.263
627.508	1627.187
627.637	1616.675
627.765	1630.263
627.893	1634.287
628.021	1615.812
628.149	1658.175
628.277	1667.612
628.405	1670.475
628.533	1646.562
628.662	1632.400
628.790	1647.450
628.918	1649.675
629.046	1654.250
629.174	1653.888
629.302	1665.175
629.430	1671.475
629.558	1668.350
629.687	1680.700
629.815	1671.362
629.943	1692.525
630.071	1683.750
630.199	1691.062
630.327	1687.675
630.455	1684.888
630.583	1711.100
630.712	1713.775
630.840	1700.050
630.968	1728.812
631.096	1717.800
631.224	1707.300
631.352	1710.362
631.480	1705.000
631.608	1706.987
631.737	1740.800
631.865	1744.175
631.993	1732.350
632.121	1742.237
632.249	1752.100
632.377	1782.787
632.505	1752.600
632.633	1735.888
632.762	1756.138
632.890	1779.775
633.018	1754.300
633.146	1757.937
633.274	1762.662
633.402	1757.450
633.530	1766.300
633.658	1777.037
633.787	1766.450
633.915	1763.925
634.043	1773.287
634.171	1777.300
634.299	1782.213
634.427	1775.713
634.555	1777.963
634.683	1773.975
634.812	1778.700
634.940	1788.312
635.068	1768.450
635.196	1772.037
635.324	1791.900
635.452	1788.112
635.580	1783.513
635.708	1764.713
635.837	1770.750
635.965	1771.525
636.093	1771.675
636.221	1777.412
636.349	1780.775
636.477	1760.850
636.605	1784.525
636.733	1768.763
636.862	1775.800
636.990	1766.463
637.118	1767.175
637.246	1763.675
637.374	1754.750
637.502	1754.213
637.630	1776.362
637.758	1770.975
637.887	1772.213
638.015	1755.588
638.143	1767.275
638.271	1756.937
638.399	1759.575
638.527	1754.513
638.655	1743.888
638.783	1774.437
638.912	1758.062
639.040	1740.588
639.168	1752.675
639.296	1759.513
639.424	1768.638
639.552	1765.625
639.680	1798.950
639.808	1752.625
639.937	1754.362
640.065	1763.775
640.193	1758.463
640.321	1766.463
640.449	1770.912
640.577	1774.312
640.705	1738.338
640.833	1768.950
640.962	1763.875
641.090	1762.412
641.218	1770.687
641.346	1745.650
641.474	1755.850
641.602	1739.412
641.730	1767.525
641.858	1763.412
641.987	1763.963
642.115	1761.187
642.243	1779.025
642.371	1808.388
642.499	1760.600
642.627	1771.588
642.755	1778.500
642.883	1785.362
643.012	1783.825
643.140	1777.687
643.268	1781.775
643.396	1811.437
643.524	1799.687
643.652	1796.912
643.780	1792.800
643.908	1805.675
644.037	1785.687
644.165	1797.400
644.293	1802.825
644.421	1791.787
644.549	1810.475
644.677	1817.900
644.805	1793.975
644.933	1789.312
645.062	1804.675
645.190	1789.375
645.318	1772.713
645.446	1814.838
645.574	1807.275
645.702	1816.162
645.830	1810.475
645.958	1833.263
646.087	1812.463
646.215	1812.287
646.343	1810.125
646.471	1816.138
646.599	1823.862
646.727	1820.537
646.855	1816.338
646.983	1822.250
647.112	1834.425
647.240	1833.287
647.368	1805.550
647.496	1802.812
647.624	1815.100
647.752	1827.100
647.880	1830.088
648.008	1827.125
648.137	1811.912
648.265	1811.450
648.393	1806.263
648.521	1833.937
648.649	1811.812
648.777	1795.062
648.905	1836.287
649.033	1789.225
649.162	1805.175
649.290	1810.225
649.418	1795.687
649.546	1802.625
649.674	1804.388
649.802	1810.838
649.930	1793.138
650.058	1796.562
650.187	1798.662
650.315	1807.562
650.443	1787.225
650.571	1817.612
650.699	1821.638
650.827	1813.825
650.955	1775.263
651.083	1793.200
651.212	1797.125
651.340	1788.500
651.468	1782.213
651.596	1766.537
651.724	1784.750
651.852	1778.350
651.980	1772.025
652.108	1792.312
652.237	1755.850
652.365	1756.675
652.493	1768.325
652.621	1753.425
652.749	1791.725
652.877	1758.325
653.005	1761.263
653.133	1768.200
653.262	1750.213
653.390	1759.588
653.518	1757.300
653.646	1753.950
653.774	1760.450
653.902	1765.388
654.030	1747.650
654.158	1748.000
654.287	1750.650
654.415	1740.312
654.543	1733.925
654.671	1743.300
654.799	1736.263
654.927	1747.450
655.055	1727.463
655.183	1713.138
655.312	1711.537
655.440	1740.200
655.568	1729.825
655.696	1724.375
655.824	1736.187
655.952	1735.325
656.080	1723.200
656.208	1735.662
656.337	1702.937
656.465	1721.338
656.593	1726.150
656.721	1719.750
656.849	1730.388
656.977	1717.237
657.105	1711.250
657.233	1718.650
657.362	1701.400
657.490	1697.675
657.618	1695.112
657.746	1703.537
657.874	1683.213
658.002	1708.425
658.130	1688.800
658.258	1702.612
658.387	1712.687
658.515	1683.838
658.643	1699.675
658.771	1692.950
658.899	1697.125
659.027	1696.138
659.155	1680.600
659.283	1683.737
659.412	1682.513
659.540	1691.513
659.668	1689.713
659.796	1677.975
659.924	1709.213
660.052	1685.100
660.180	1674.875
660.308	1678.475
660.437	1664.575
660.565	1658.338
660.693	1675.138
660.821	1677.812
660.949	1684.725
661.077	1665.575
661.205	1679.162
661.333	1652.287
661.462	1676.838
661.590	1692.875
661.718	1664.037
661.846	1670.500
661.974	1657.612
662.102	1649.625
662.230	1672.213
662.358	1646.525
662.487	1666.150
662.615	1648.325
662.743	1654.275
662.871	1660.187
662.999	1638.287
663.127	1655.312
663.255	1652.263
663.383	1661.925
663.512	1651.000
663.640	1657.125
663.768	1637.400
663.896	1650.525
664.024	1636.225
664.152	1655.463
664.280	1639.125
664.408	1644.437
664.537	1645.500
664.665	1637.350
664.793	1619.062
664.921	1617.625
665.049	1639.250
665.177	1656.287
665.305	1644.787
665.433	1638.638
665.562	1635.525
665.690	1637.275
665.818	1640.737
665.946	1630.787
666.074	1626.037
666.202	1638.237
666.330	1603.763
666.458	1624.562
666.587	1614.475
666.715	1636.987
666.843	1641.275
666.971	1613.300
667.099	1633.625
667.227	1639.050
667.355	1626.487
667.483	1595.862
667.612	1612.912
667.740	1622.325
667.868	1640.200
667.996	1618.475
668.124	1610.625
668.252	1626.450
668.380	1618.425
668.508	1631.750
668.637	1608.638
668.765	1617.825
668.893	1622.162
669.021	1617.475
669.149	1599.350
669.277	1601.425
669.405	1597.713
669.533	1607.213
669.662	1604.963
669.790	1580.975
669.918	1607.725
670.046	1605.650
670.174	1584.487
670.302	1605.463
670.430	1583.375
670.558	1594.562
670.687	1589.612
670.815	1591.650
670.943	1577.362
671.071	1589.175
671.199	1596.612
671.327	1586.125
671.455	1568.525
671.583	1582.237
671.712	1576.750
671.840	1556.825
671.968	1566.825
672.096	1560.475
672.224	1568.737
672.352	1561.537
672.480	1567.600
672.608	1552.425
672.737	1570.588
672.865	1554.250
672.993	1553.963
673.121	1560.550
673.249	1544.250
673.377	1542.862
673.505	1560.388
673.633	1530.600
673.762	1540.537
673.890	1544.388
674.018	1531.537
674.146	1539.888
674.274	1550.037
674.402	1541.037
674.530	1535.650
674.658	1540.562
674.787	1518.287
674.915	1513.125
675.043	1525.513
675.171	1518.862
675.299	1515.000
675.427	1517.125
675.555	1514.775
675.683	1517.025
675.812	1508.287
675.940	1499.737
676.068	1522.812
676.196	1506.362
676.324	1501.950
676.452	1493.425
676.580	1486.963
676.708	1487.075
676.837	1506.862
676.965	1484.400
677.093	1492.775
677.221	1483.650
677.349	1462.388
677.477	1475.812
677.605	1459.838
677.733	1481.950
677.862	1453.375
677.990	1472.800
678.118	1458.388
678.246	1451.850
678.374	1442.513
678.502	1456.350
678.630	1446.612
678.758	1446.450
678.887	1451.787
679.015	1453.562
679.143	1446.300
679.271	1443.162
679.399	1442.037
679.527	1437.263
679.655	1418.075
679.783	1432.500
679.912	1444.625
680.040	1431.425
680.168	1421.537
680.296	1418.525
680.424	1423.912
680.552	1422.213
680.680	1431.588
680.808	1416.150
680.937	1410.588
681.065	1422.100
681.193	1408.088
681.321	1429.912
681.449	1411.487
681.577	1408.525
681.705	1401.975
681.833	1399.112
681.962	1387.862
682.090	1412.300
682.218	1401.562
682.346	1403.112
682.474	1411.862
682.602	1409.162
682.730	1396.612
682.858	1400.687
682.987	1398.463
683.115	1395.437
683.243	1392.013
683.371	1392.088
683.499	1382.812
683.627	1403.975
683.755	1394.112
683.883	1394.513
684.012	1384.187
684.140	1371.050
684.268	1384.937
684.396	1386.025
684.524	1393.225
684.652	1403.400
684.780	1390.150
684.908	1388.150
685.037	1376.463
685.165	1386.750
685.293	1394.100
685.421	1372.950
685.549	1378.825
685.677	1385.937
685.805	1370.213
685.933	1374.838
686.062	1367.275
686.190	1385.000
686.318	1386.825
686.446	1379.812
686.574	1368.375
686.702	1390.825
686.830	1376.912
686.958	1375.075
687.087	1373.700
687.215	1360.237
687.343	1371.537
687.471	1375.638
687.599	1368.888
687.727	1362.437
687.855	1379.750
687.983	1371.675
688.112	1367.937
688.240	1360.675
688.368	1361.487
688.496	1372.487
688.624	1363.888
688.752	1362.112
688.880	1368.912
689.008	1351.112
689.137	1359.100
689.265	1351.862
689.393	1346.013
689.521	1333.213
689.649	1348.850
689.777	1342.675
689.905	1343.287
690.033	1333.388
690.162	1329.975
690.290	1339.787
690.418	1352.300
690.546	1355.600
690.674	1351.775
690.802	1335.388
690.930	1328.400
691.058	1331.875
691.187	1323.412
691.315	1340.187
691.443	1332.300
691.571	1344.175
691.699	1325.625
691.827	1325.388
691.955	1329.275
692.083	1327.187
692.212	1316.950
692.340	1334.350
692.468	1314.625
692.596	1315.025
692.724	1312.150
692.852	1310.025
692.980	1312.325
693.108	1306.175
693.237	1297.287
693.365	1313.412
693.493	1299.450
693.621	1298.787
693.749	1301.775
693.877	1287.112
694.005	1282.600
694.133	1302.013
694.262	1293.225
694.390	1272.375
694.518	1267.187
694.646	1280.237
694.774	1278.237
694.902	1278.525
695.030	1307.737
695.158	1272.350
695.287	1280.537
695.415	1265.100
695.543	1273.950
695.671	1262.000
695.799	1263.888
695.927	1259.900
696.055	1249.987
696.183	1289.362
696.312	1261.062
696.440	1254.263
696.568	1260.513
696.696	1255.775
696.824	1253.450
696.952	1256.987
697.080	1242.513
697.208	1260.912
697.337	1241.338
697.465	1242.112
697.593	1235.750
697.721	1239.338
697.849	1236.963
697.977	1226.687
698.105	1243.975
698.233	1246.550
698.362	1232.888
698.490	1238.912
698.618	1232.225
698.746	1227.500
698.874	1231.925
699.002	1236.350
699.130	1222.400
699.258	1230.037
699.387	1213.312
699.515	1218.112
699.643	1222.975
699.771	1217.600
699.899	1216.825
700.027	1225.412
700.155	1209.400
700.283	1218.638
700.412	1212.787
700.540	1203.263
700.668	1190.862
700.796	1216.000
700.924	1191.400
701.052	1199.487
701.180	1203.150
701.308	1199.787
701.437	1190.362
701.565	1195.600
701.693	1199.275
701.821	1211.975
701.949	1200.237
702.077	1178.325
702.205	1187.088
702.333	1172.450
702.462	1180.838
702.590	1176.312
702.718	1189.987
702.846	1176.037
702.974	1180.250
703.102	1189.425
703.230	1189.638
703.358	1161.537
703.487	1164.875
703.615	1172.150
703.743	1161.900
703.871	1170.213
703.999	1163.713
704.127	1155.550
704.255	1158.338
704.383	1154.987
704.512	1149.500
704.640	1165.612
704.768	1151.138
704.896	1152.362
705.024	1151.025
705.152	1156.600
705.280	1143.362
705.408	1134.112
705.537	1149.550
705.665	1141.612
705.793	1142.287
705.921	1138.963
706.049	1152.787
706.177	1136.787
706.305	1139.275
706.433	1134.100
706.562	1132.937
706.690	1125.475
706.818	1122.075
706.946	1132.562
707.074	1120.675
707.202	1113.263
707.330	1117.975
707.458	1116.700
707.587	1117.912
707.715	1107.875
707.843	1101.187
707.971	1120.300
708.099	1112.200
708.227	1100.937
708.355	1097.550
708.483	1105.500
708.612	1100.612
708.740	1096.937
708.868	1094.475
708.996	1096.925
709.124	1108.937
709.252	1092.750
709.380	1097.437
709.508	1079.588
709.637	1102.037
709.765	1080.312
709.893	1082.675
710.021	1094.450
710.149	1083.237
710.277	1097.537
710.405	1089.325
710.533	1077.787
710.662	1074.500
710.790	1088.187
710.918	1072.638
711.046	1075.013
711.174	1090.375
711.302	1083.950
711.430	1073.225
711.558	1089.200
711.687	1072.237
711.815	1073.138
711.943	1079.800
712.071	1076.187
712.199	1076.300
712.327	1073.463
712.455	1066.400
712.583	1064.562
712.712	1088.138
712.840	1072.725
712.968	1061.213
713.096	1068.800
713.224	1069.562
713.352	1066.037
713.480	1051.600
713.608	1056.763
713.737	1066.350
713.865	1061.737
713.993	1047.963
714.121	1051.550
714.249	1059.287
714.377	1040.075
714.505	1058.300
714.633	1043.200
714.762	1049.350
714.890	1059.112
715.018	1043.525
715.146	1030.600
715.274	1045.050
715.402	1044.662
715.530	1055.675
715.658	1039.850
715.787	1053.112
715.915	1048.013
716.043	1040.162
716.171	1044.600
716.299	1060.075
716.427	1049.250
716.555	1039.500
716.683	1033.750
716.812	1043.638
716.940	1033.862
717.068	1019.612
717.196	1043.312
717.324	1043.213
717.452	1031.675
717.580	1038.412
717.708	1029.138
717.837	1041.388
717.965	1021.337
718.093	1023.400
718.221	1020.087
718.349	1029.875
718.477	1022.862
718.605	1028.138
718.733	1032.050
718.862	1023.775
718.990	1009.875
719.118	1017.800
719.246	1009.125
719.374	1019.888
719.502	1033.425
719.630	1022.062
719.758	1024.162
719.887	1020.250
720.015	1022.750
720.143	1007.413
720.271	1009.450
720.399	1016.000
720.527	1010.550
720.655	1011.987
720.783	1004.062
720.912	1011.125
721.040	1019.200
721.168	1004.462
721.296	994.275
721.424	1013.413
721.552	992.625
721.680	1004.100
721.808	1007.937
721.937	998.750
722.065	993.750
722.193	991.200
722.321	1001.675
722.449	995.163
722.577	987.187
722.705	995.538
722.833	981.462
722.962	1000.712
723.090	984.425
723.218	984.300
723.346	991.900
723.474	989.125
723.602	990.250
723.730	989.975
723.858	986.425
723.987	992.962
724.115	973.925
724.243	980.575
724.371	984.112
724.499	986.112
724.627	982.825
724.755	988.375
724.883	982.425
725.012	976.625
725.140	971.288
725.268	964.663
725.396	968.650
725.524	972.837
725.652	963.225
725.780	968.413
725.908	967.775
726.037	970.612
726.165	975.950
726.293	953.562
726.421	951.300
726.549	968.325
726.677	953.850
726.805	959.950
726.933	967.650
727.062	951.550
727.190	954.462
727.318	950.437
727.446	959.475
727.574	965.525
727.702	962.513
727.830	942.562
727.958	958.737
728.087	947.462
728.215	946.275
728.343	946.462
728.471	956.025
728.599	946.625
728.727	945.700
728.855	943.712
728.983	940.550
729.112	951.737
729.240	941.600
729.368	943.413
729.496	946.937
729.624	945.788
729.752	933.475
729.880	943.937
730.008	938.913
730.137	929.862
730.265	938.800
730.393	936.775
730.521	931.013
730.649	938.325
730.777	934.000
730.905	935.000
731.033	928.913
731.162	933.337
731.290	939.050
731.418	929.850
731.546	958.062
731.674	924.013
731.802	922.725
731.930	924.237
732.058	932.913
732.187	929.212
732.315	920.638
732.443	930.888
732.571	919.250
732.699	925.288
732.827	918.400
732.955	926.312
733.083	920.825
733.212	913.362
733.340	923.500
733.468	926.312
733.596	918.975
733.724	920.013
733.852	913.075
733.980	921.275
734.108	926.925
734.237	933.513
734.365	918.925
734.493	930.150
734.621	914.712
734.749	930.400
734.877	921.575
735.005	922.263
735.133	926.513
735.262	940.087
735.390	918.163
735.518	916.837
735.646	921.375
735.774	927.425
735.902	918.663
736.030	925.687
736.158	925.888
736.287	915.975
736.415	927.837
736.543	933.050
736.671	921.750
736.799	918.025
736.927	929.362
737.055	932.450
737.183	925.850
737.312	932.712
737.440	932.538
737.568	943.125
737.696	932.237
737.824	921.337
737.952	936.300
738.080	927.500
738.208	939.437
738.337	920.987
738.465	941.075
738.593	913.025
738.721	911.925
738.849	926.600
738.977	930.850
739.105	935.062
739.233	931.825
739.362	917.587
739.490	915.975
739.618	924.612
739.746	929.525
739.874	937.525
740.002	920.237
740.130	919.737
740.258	928.650
740.387	931.812
740.515	918.513
740.643	925.763
740.771	936.450
740.899	925.638
741.027	925.975
741.155	932.712
741.283	926.212
741.412	926.950
741.540	927.500
741.668	916.237
741.796	928.900
741.924	945.825
742.052	929.513
742.180	921.250
742.308	923.450
742.437	924.275
742.565	927.950
742.693	928.812
742.821	921.650
742.949	928.562
743.077	933.587
743.205	928.000
743.333	926.087
743.462	924.638
743.590	925.425
743.718	921.625
743.846	917.913
743.974	919.100
744.102	916.600
744.230	920.212
744.358	921.700
744.487	929.725
744.615	906.962
744.743	923.125
744.871	919.050
744.999	913.250
745.127	913.263
745.255	915.700
745.383	913.925
745.512	919.987
745.640	901.775
745.768	917.888
745.896	914.500
746.024	912.400
746.152	910.288
746.280	914.375
746.408	911.000
746.537	909.937
746.665	918.225
746.793	907.038
746.921	910.000
747.049	912.737
747.177	908.950
747.305	896.862
747.433	909.288
747.562	901.187
747.690	906.725
747.818	902.712
747.946	898.362
748.074	915.725
748.202	907.837
748.330	895.875
748.458	899.925
748.587	893.163
748.715	888.325
748.843	907.675
748.971	901.150
749.099	886.487
749.227	897.175
749.355	892.587
749.483	902.138
749.612	884.150
749.740	880.962
749.868	891.950
749.996	887.737
750.124	890.763
750.252	885.650
750.380	893.413
750.508	883.425
750.637	884.250
750.765	878.388
750.893	878.800
751.021	881.763
751.149	885.200
751.277	889.625
751.405	887.138
751.533	886.687
751.662	886.062
751.790	882.362
751.918	882.675
752.046	868.013
752.174	873.437
752.302	878.862
752.430	866.237
752.558	870.975
752.687	874.475
752.815	876.325
752.943	868.300
753.071	867.587
753.199	863.112
753.327	871.300
753.455	858.538
753.583	853.500
753.712	864.225
753.840	846.375
753.968	857.275
754.096	850.587
754.224	855.425
754.352	845.388
754.480	845.625
754.608	846.425
754.737	837.575
754.865	844.388
754.993	836.737
755.121	850.062
755.249	858.950
755.377	831.100
755.505	844.200
755.633	854.350
755.762	837.300
755.890	842.600
756.018	840.950
756.146	833.712
756.274	834.575
756.402	831.913
756.530	833.638
756.658	842.812
756.787	828.150
756.915	817.450
757.043	823.237
757.171	827.312
757.299	817.663
757.427	824.450
757.555	812.288
757.683	820.788
757.812	812.575
757.940	807.062
758.068	805.763
758.196	805.650
758.324	809.388
758.452	799.875
758.580	796.612
758.708	811.750
758.837	799.663
758.965	809.687
759.093	792.663
759.221	802.000
759.349	789.487
759.477	789.275
759.605	793.038
759.733	782.712
759.862	799.400
759.990	779.937
760.118	787.687
760.246	775.663
760.374	774.225
760.502	778.200
760.630	772.125
760.758	769.263
760.887	765.437
761.015	762.750
761.143	776.462
761.271	772.388
761.399	757.250
761.527	759.650
761.655	768.125
761.783	765.900
761.912	761.163
762.040	756.350
762.168	752.250
762.296	753.163
762.424	742.712
762.552	744.212
762.680	757.300
762.808	739.700
762.937	754.550
763.065	751.837
763.193	745.388
763.321	734.362
763.449	730.375
763.577	733.737
763.705	733.913
763.833	759.737
763.962	722.150
764.090	719.062
764.218	719.987
764.346	716.712
764.474	711.550
764.602	720.800
764.730	715.275
764.858	712.538
764.987	713.138
765.115	713.462
765.243	718.000
765.371	695.013
765.499	689.638
765.627	688.725
765.755	690.388
765.883	683.275
766.012	688.225
766.140	690.763
766.268	690.750
766.396	687.112
766.524	682.312
766.652	686.150
766.780	677.600
766.908	672.237
767.037	683.362
767.165	678.837
767.293	690.425
767.421	677.050
767.549	671.038
767.677	667.513
767.805	661.100
767.933	668.362
768.062	671.325
768.190	665.300
768.318	672.788
768.446	679.138
768.574	670.112
768.702	672.388
768.830	670.212
768.958	665.163
769.087	671.850
769.215	661.687
769.343	666.075
769.471	656.550
769.599	657.837
769.727	648.675
769.855	659.362
769.983	650.500
770.112	654.962
770.240	643.325
770.368	652.350
770.496	651.562
770.624	640.050
770.752	649.725
770.880	656.538
771.008	642.062
771.137	637.788
771.265	651.150
771.393	643.788
771.521	636.600
771.649	632.325
771.777	638.538
771.905	638.087
772.033	642.800
772.162	646.888
772.290	638.350
772.418	638.675
772.546	632.413
772.674	635.937
772.802	633.587
772.930	636.562
773.058	627.013
773.187	635.288
773.315	629.950
773.443	630.538
773.571	621.125
773.699	630.775
773.827	622.600
773.955	633.200
774.083	637.687
774.212	626.812
774.340	616.513
774.468	621.975
774.596	627.437
774.724	622.100
774.852	615.163
774.980	618.300
775.108	621.300
775.237	613.712
775.365	615.138
775.493	610.562
775.621	610.450
775.749	615.075
775.877	617.538
776.005	605.175
776.133	608.075
776.262	607.675
776.390	597.500
776.518	609.600
776.646	598.038
776.774	604.987
776.902	609.013
777.030	594.225
777.158	606.112
777.287	601.587
777.415	600.612
777.543	600.025
777.671	599.788
777.799	592.825
777.927	599.462
778.055	595.737
778.183	596.750
778.312	580.550
778.440	586.437
778.568	598.513
778.696	577.325
778.824	597.112
778.952	588.237
779.080	589.500
779.208	586.925
779.337	580.225
779.465	588.913
779.593	576.913
779.721	588.900
779.849	569.475
779.977	580.500
780.105	571.913
780.233	580.312
780.362	582.937
780.490	573.850
780.618	570.850
780.746	568.212
780.874	564.525
781.002	565.925
781.130	563.950
781.258	560.125
781.387	568.700
781.515	558.087
781.643	547.462
781.771	565.200
781.899	561.712
782.027	559.362
782.155	550.725
782.283	551.975
782.412	547.562
782.540	554.250
782.668	560.550
782.796	546.038
782.924	553.413
783.052	538.975
783.180	552.437
783.308	534.325
783.437	546.500
783.565	546.700
783.693	535.337
783.821	549.312
783.949	539.375
784.077	534.275
784.205	537.163
784.333	542.663
784.462	523.625
784.590	534.862
784.718	524.650
784.846	523.562
784.974	537.462
785.102	530.937
785.230	520.187
785.358	531.837
785.487	525.050
785.615	521.163
785.743	520.237
785.871	517.788
785.999	517.550
786.127	515.775
786.255	533.263
786.383	522.500
786.512	518.000
786.640	512.513
786.768	511.125
786.896	506.488
787.024	511.250
787.152	504.937
787.280	505.550
787.408	502.650
787.537	498.475
787.665	495.950
787.793	504.075
787.921	503.800
788.049	494.800
788.177	491.575
788.305	495.625
788.433	504.238
788.562	491.238
788.690	488.075
788.818	482.587
788.946	490.250
789.074	482.825
789.202	486.025
789.330	482.450
789.458	478.913
789.587	475.462
789.715	482.762
789.843	477.212
789.971	475.300
790.099	466.075
790.227	477.238
790.355	463.812
790.483	482.462
790.612	472.062
790.740	462.613
790.868	467.925
790.996	465.900
791.124	466.700
791.252	460.425
791.380	463.038
791.508	456.675
791.637	468.275
791.765	445.062
791.893	455.937
792.021	455.325
792.149	448.050
792.277	445.663
792.405	450.312
792.533	458.113
792.662	440.025
792.790	442.600
792.918	444.613
793.046	434.575
793.174	438.163
793.302	438.712
793.430	434.663
793.558	440.350
793.687	430.350
793.815	435.212
793.943	430.937
794.071	427.587
794.199	424.562
794.327	430.125
794.455	445.988
794.583	438.075
794.712	424.337
794.840	418.212
794.968	422.800
795.096	420.825
795.224	416.500
795.352	411.325
795.480	413.800
795.608	410.425
795.737	406.200
795.865	403.512
795.993	398.100
796.121	397.725
796.249	404.925
796.377	401.900
796.505	404.550
796.633	393.925
796.762	389.113
796.890	406.525
797.018	393.275
797.146	388.012
797.274	379.212
797.402	386.350
797.530	381.837
797.658	388.150
797.787	385.012
797.915	386.200
798.043	380.712
798.171	385.325
798.299	377.762
798.427	373.437
798.555	373.812
798.683	371.337
798.812	365.725
798.940	373.288
799.068	376.387
799.196	372.863
799.324	364.837
799.452	367.750
799.580	363.187
799.708	373.012
799.837	354.125
799.965	356.925
800.093	355.238
800.221	354.613
800.349	359.375
800.477	354.350
800.605	354.613
800.733	352.788
800.862	355.187
800.990	366.212
801.118	347.637
801.246	342.538
801.374	338.850
801.502	345.175
801.630	336.150
801.758	341.113
801.887	344.250
802.015	336.788
802.143	335.587
802.271	337.175
802.399	336.038
802.527	335.900
802.655	336.163
802.783	340.600
802.912	336.038
803.040	329.650
803.168	327.062
803.296	324.600
803.424	321.387
803.552	323.800
803.680	321.475
803.808	318.275
803.937	321.387
804.065	319.175
804.193	317.837
804.321	326.788
804.449	312.450
804.577	317.113
804.705	312.700
804.833	318.562
804.962	310.875
805.090	306.738
805.218	313.113
805.346	305.675
805.474	305.300
805.602	321.587
805.730	302.663
805.858	303.425
805.987	313.962
806.115	302.038
806.243	299.837
806.371	298.387
806.499	294.788
806.627	289.812
806.755	295.087
806.883	293.725
807.012	294.062
807.140	300.575
807.268	293.163
807.396	291.150
807.524	283.675
807.652	284.050
807.780	302.225
807.908	281.050
808.037	291.100
808.165	288.113
808.293	285.775
808.421	288.575
808.549	279.300
808.677	275.587
808.805	288.900
808.933	278.712
809.062	272.913
809.190	296.600
809.318	274.725
809.446	272.113
809.574	278.000
809.702	275.087
809.830	275.025
809.958	275.288
810.087	270.962
810.215	275.450
810.343	283.450
810.471	270.387
810.599	260.363
810.727	263.288
810.855	257.300
810.983	273.275
811.112	263.500
811.240	261.450
811.368	266.125
811.496	265.863
811.624	260.738
811.752	255.775
811.880	254.262
812.008	253.088
812.137	254.637
812.265	253.700
812.393	255.937
812.521	253.725
812.649	250.275
812.777	254.412
812.905	257.275
813.033	246.887
813.162	241.400
813.290	245.537
813.418	252.525
813.546	243.838
813.674	242.175
813.802	244.450
813.930	240.575
814.058	236.575
814.187	237.762
814.315	244.113
814.443	237.912
814.571	231.512
814.699	246.137
814.827	233.125
814.955	239.012
815.083	231.800
815.212	236.400
815.340	230.738
815.468	229.113
815.596	229.912
815.724	231.963
815.852	235.525
815.980	226.075
816.108	226.075
816.237	224.900
816.365	224.225
816.493	229.800
816.621	221.175
816.749	219.650
816.877	217.775
817.005	226.625
817.133	215.713
817.262	214.875
817.390	222.175
817.518	211.275
817.646	221.062
817.774	217.475
817.902	220.213
818.030	213.812
818.158	214.825
818.287	220.037
818.415	209.912
818.543	210.500
818.671	219.850
818.799	207.800
818.927	215.100
819.055	209.800
819.183	203.637
819.312	205.950
819.440	205.075
819.568	205.512
819.696	214.875
819.824	204.838
819.952	199.025
820.080	201.463
820.208	199.550
820.337	199.287
820.465	203.800
820.593	199.875
820.721	200.637
820.849	199.475
820.977	199.200
821.105	199.262
821.233	193.650
821.362	206.387
821.490	193.787
821.618	196.800
821.746	189.213
821.874	190.588
822.002	198.650
822.130	191.762
822.258	183.250
822.387	191.613
822.515	195.512
822.643	193.500
822.771	186.875
822.899	186.387
823.027	193.037
823.155	179.225
823.283	183.175
823.412	191.725
823.540	183.225
823.668	203.425
823.796	180.613
823.924	189.537
824.052	187.088
824.180	180.375
824.308	185.350
824.437	187.588
824.565	180.225
824.693	179.838
824.821	185.463
824.949	181.075
825.077	181.312
825.205	182.887
825.333	179.187
825.462	180.613
825.590	170.875
825.718	178.437
825.846	176.875
825.974	179.838
826.102	175.488
826.230	174.887
826.358	179.113
826.487	175.812
826.615	180.238
826.743	169.463
826.871	180.950
826.999	184.437
827.127	173.375
827.255	173.225
827.383	164.475
827.512	180.838
827.640	167.238
827.768	165.887
827.896	169.713
828.024	165.850
828.152	165.525
828.280	167.738
828.408	167.875
828.537	167.375
828.665	166.975
828.793	165.863
828.921	161.937
829.049	167.488
829.177	162.762
829.305	160.262
829.433	162.213
829.562	161.975
829.690	159.725
829.818	163.687
829.946	163.463
830.074	157.662
830.202	165.350
830.330	160.075
830.458	167.275
830.587	152.800
830.715	155.912
830.843	159.662
830.971	161.100
831.099	158.725
831.227	152.437
831.355	160.812
831.483	152.250
831.612	162.062
831.740	158.338
831.868	166.425
831.996	154.512
832.124	157.300
832.252	147.738
832.380	156.100
832.508	164.250
832.637	157.187
832.765	151.887
832.893	156.600
833.021	153.238
833.149	150.662
833.277	149.200
833.405	146.300
833.533	147.900
833.662	148.912
833.790	150.350
833.918	152.588
834.046	152.512
834.174	149.488
834.302	150.325
834.430	142.600
834.558	153.575
834.687	147.600
834.815	147.425
834.943	148.775
835.071	145.150
835.199	148.050
835.327	152.325
835.455	142.363
835.583	153.937
835.712	143.012
835.840	148.213
835.968	144.175
836.096	153.350
836.224	153.950
836.352	142.562
836.480	147.750
836.608	149.637
836.737	141.912
836.865	136.562
836.993	143.412
837.121	142.812
837.249	139.875
837.377	144.662
837.505	140.637
837.633	141.650
837.762	138.950
837.890	144.037
838.018	142.550
838.146	150.312
838.274	144.525
838.402	145.075
838.530	139.488
838.658	133.525
838.787	140.537
838.915	138.650
839.043	135.463
839.171	150.137
839.299	136.800
839.427	136.150
839.555	146.450
839.683	142.925
839.812	138.113
839.940	137.875
840.068	136.088
840.196	136.963
840.324	134.125
840.452	143.088
840.580	135.613
840.708	136.787
840.837	142.262
840.965	138.550
841.093	140.588
841.221	146.375
841.349	146.738
841.477	141.200
841.605	139.012
841.733	134.200
841.862	140.825
841.990	138.687
842.118	131.287
842.246	128.975
842.374	129.150
842.502	132.600
842.630	132.662
842.758	141.275
842.887	133.975
843.015	133.537
843.143	135.975
843.271	131.662
843.399	137.213
843.527	131.150
843.655	132.012
843.783	131.400
843.912	128.325
844.040	137.662
844.168	139.650
844.296	137.113
844.424	132.562
844.552	130.550
844.680	134.300
844.808	137.800
844.937	126.588
845.065	128.950
845.193	130.600
845.321	130.375
845.449	126.787
845.577	129.738
845.705	129.262
845.833	130.838
845.962	129.437
846.090	126.200
846.218	132.975
846.346	131.412
846.474	129.200
846.602	123.650
846.730	132.375
846.858	128.762
846.987	127.050
847.115	123.838
847.243	129.537
847.371	131.100
847.499	124.225
847.627	126.200
847.755	121.963
847.883	127.162
848.012	127.687
848.140	127.312
848.268	128.037
848.396	125.763
848.524	126.150
848.652	121.037
848.780	122.963
848.908	131.262
849.037	124.925
849.165	125.350
849.293	125.362
849.421	127.150
849.549	123.025
849.677	131.400
849.805	130.062
849.933	126.338
850.062	123.487
850.190	121.125
850.318	126.187
850.446	121.987
850.574	123.513
850.702	123.013
850.830	119.537
850.958	128.963
851.087	125.150
851.215	125.963
851.343	122.687
851.471	119.100
851.599	119.100
851.727	122.412
851.855	125.075
851.983	128.200
852.112	122.213
852.240	124.175
852.368	119.862
852.496	119.537
852.624	119.800
852.752	120.263
852.880	117.675
853.008	120.250
853.137	133.750
853.265	121.925
853.393	122.463
853.521	125.838
853.649	124.050
853.777	117.750
853.905	122.963
854.033	120.425
854.162	128.575
854.290	120.750
854.418	114.400
854.546	115.562
854.674	138.300
854.802	121.763
854.930	119.037
855.058	113.825
855.187	113.575
855.315	119.312
855.443	112.638
855.571	112.662
855.699	115.325
855.827	119.213
855.955	117.225
856.083	117.937
856.212	123.425
856.340	115.187
856.468	122.750
856.596	119.562
856.724	120.150
856.852	117.350
856.980	115.325
857.108	116.088
857.237	117.900
857.365	118.525
857.493	118.388
857.621	114.662
857.749	114.537
857.877	116.175
858.005	118.550
858.133	119.937
858.262	115.575
858.390	113.088
858.518	110.838
858.646	116.125
858.774	115.575
858.902	113.275
859.030	112.763
859.158	112.425
859.287	116.037
859.415	112.050
859.543	112.463
859.671	119.487
859.799	118.475
859.927	120.487
860.055	113.100
860.183	112.412
860.312	114.562
860.440	112.875
860.568	113.388
860.696	113.787
860.824	128.600
860.952	113.400
861.080	111.475
861.208	115.537
861.337	114.075
861.465	116.150
861.593	117.600
861.721	112.450
861.849	113.062
861.977	111.625
862.105	114.838
862.233	109.400
862.362	113.700
862.490	115.963
862.618	119.263
862.746	113.200
862.874	111.937
863.002	111.862
863.130	115.987
863.258	111.725
863.387	112.750
863.515	112.437
863.643	107.600
863.771	112.125
863.899	113.500
864.027	111.950
864.155	109.963
864.283	110.162
864.412	112.862
864.540	110.350
864.668	108.075
864.796	111.250
864.924	109.963
865.052	117.812
865.180	112.525
865.308	107.275
865.437	110.287
865.565	112.525
865.693	117.687
865.821	110.375
865.949	109.400
866.077	111.675
866.205	107.987
866.333	109.800
866.462	108.925
866.590	109.200
866.718	113.388
866.846	112.700
866.974	111.912
867.102	113.150
867.230	109.138
867.358	111.975
867.487	111.937
867.615	109.475
867.743	109.987
867.871	117.725
867.999	112.412
868.127	110.513
868.255	120.075
868.383	115.787
868.512	106.963
868.640	112.338
868.768	111.100
868.896	110.638
869.024	111.963
869.152	112.075
869.280	112.888
869.408	111.950
869.537	107.987
869.665	110.350
869.793	109.287
869.921	116.275
870.049	113.537
870.177	110.200
870.305	119.013
870.433	113.525
870.562	107.725
870.690	108.013
870.818	109.713
870.946	109.675
871.074	107.525
871.202	108.588
871.330	108.112
871.458	107.000
871.587	107.963
871.715	108.312
871.843	110.875
871.971	112.687
872.099	110.900
872.227	110.713
872.355	110.000
872.483	114.638
872.612	110.350
872.740	111.213
872.868	106.388
872.996	109.975
873.124	111.638
873.252	114.412
873.380	109.562
873.508	108.263
873.637	108.600
873.765	112.513
873.893	110.475
874.021	108.187
874.149	110.037
874.277	108.662
874.405	114.562
874.533	110.513
874.662	324.700
874.790	108.700
874.918	113.862
875.046	110.588
875.174	111.037
875.302	107.737
875.430	107.713
875.558	107.925
875.687	111.500
875.815	109.763
875.943	107.487
876.071	110.187
876.199	112.000
876.327	117.250
876.455	110.187
876.583	113.787
876.712	111.638
876.840	110.888
876.968	109.638
877.096	109.475
877.224	107.725
877.352	106.187
877.480	108.187
877.608	108.625
877.737	110.050
877.865	109.000
877.993	111.850
878.121	110.375
878.249	109.225
878.377	108.225
878.505	109.325
878.633	107.450
878.762	107.025
878.890	111.138
879.018	114.838
879.146	112.600
879.274	108.900
879.402	109.388
879.530	109.937
879.658	112.025
879.787	111.075
879.915	110.275
880.043	108.425
880.171	108.388
880.299	106.213
880.427	110.625
880.555	112.088
880.683	111.013
880.812	107.875
880.940	108.825
881.068	109.525
881.196	107.800
881.324	110.025
881.452	109.750
881.580	109.888
881.708	107.912
881.837	110.812
881.965	109.725
882.093	108.838
882.221	107.650
882.349	112.300
882.477	112.013
882.605	115.600
882.733	111.900
882.862	109.150
882.990	104.750
883.118	108.588
883.246	109.625
883.374	111.037
883.502	107.862
883.630	107.787
883.758	107.437
883.887	106.513
884.015	107.687
884.143	105.112
884.271	108.275
884.399	108.963
884.527	110.013
884.655	108.900
884.783	107.825
884.912	108.200
885.040	105.112
885.168	105.187
885.296	104.300
885.424	107.275
885.552	107.963
885.680	106.713
885.808	109.362
885.937	109.537
886.065	112.850
886.193	108.000
886.321	107.987
886.449	106.400
886.577	107.638
886.705	108.500
886.833	108.200
886.962	106.525
887.090	108.187
887.218	109.888
887.346	110.825
887.474	118.425
887.602	110.450
887.730	109.500
887.858	109.162
887.987	109.625
888.115	116.625
888.243	107.812
888.371	108.013
888.499	110.263
888.627	109.100
888.755	107.825
888.883	108.725
889.012	106.225
889.140	106.513
889.268	115.513
889.396	110.588
889.524	108.250
889.652	106.000
889.780	108.088
889.908	108.362
890.037	108.550
890.165	109.987
890.293	108.950
890.421	106.838
890.549	109.138
890.677	106.800
890.805	107.575
890.933	107.187
891.062	104.800
891.190	109.487
891.318	109.888
891.446	109.575
891.574	106.800
891.702	106.850
891.830	108.888
891.958	109.425
892.087	109.375
892.215	107.500
892.343	108.525
892.471	105.338
892.599	106.562
892.727	111.713
892.855	107.950
892.983	105.125
893.112	108.500
893.240	112.562
893.368	110.100
893.496	109.675
893.624	110.375
893.752	112.150
893.880	106.900
894.008	106.487
894.137	113.687
894.265	114.312
894.393	112.075
894.521	110.675
894.649	111.513
894.777	107.388
894.905	109.412
895.033	111.513
895.162	113.425
895.290	112.625
895.418	112.687
895.546	114.000
895.674	115.925
895.802	106.612
895.930	107.412
896.058	106.050
896.187	106.250
896.315	107.662
896.443	108.187
896.571	110.750
896.699	108.937
896.827	109.162
896.955	110.850
897.083	108.713
897.212	110.750
897.340	104.175
897.468	107.350
897.596	109.400
897.724	107.500
897.852	115.825
897.980	108.150
898.108	105.500
898.237	105.525
898.365	106.263
898.493	107.437
898.621	106.412
898.749	106.025
898.877	110.350
899.005	109.662
899.133	108.112
899.262	105.650
899.390	107.062
899.518	105.612
899.646	109.987
899.774	115.575
899.902	120.600
900.030	106.950
900.158	107.513
900.287	111.537
900.415	109.987
900.543	106.237
900.671	112.437
900.799	110.562
900.927	109.875
901.055	107.825
901.183	111.138
901.312	110.500
901.440	111.088
901.568	110.225
901.696	108.213
901.824	109.888
901.952	113.412
902.080	110.775
902.208	109.338
902.337	109.175
902.465	110.975
902.593	110.812
902.721	110.400
902.849	110.812
902.977	107.000
903.105	112.487
903.233	117.263
903.362	110.362
903.490	108.588
903.618	107.350
903.746	112.900
903.874	110.150
904.002	110.600
904.130	114.662
904.258	109.200
904.387	109.775
904.515	109.687
904.643	106.725
904.771	107.175
904.899	111.350
905.027	109.937
905.155	105.987
905.283	108.287
905.412	116.838
905.540	109.800
905.668	107.562
905.796	106.775
905.924	106.800
906.052	107.037
906.180	109.825
906.308	109.287
906.437	113.200
906.565	110.338
906.693	107.862
906.821	106.687
906.949	107.825
907.077	109.475
907.205	111.175
907.333	112.662
907.462	110.225
907.590	112.487
907.718	113.450
907.846	110.237
907.974	110.625
908.102	109.875
908.230	113.400
908.358	114.513
908.487	111.900
908.615	112.812
908.743	109.237
908.871	109.687
908.999	110.037
909.127	109.125
909.255	109.687
909.383	111.287
909.512	114.987
909.640	110.850
909.768	112.300
909.896	119.800
910.024	113.600
910.152	112.575
910.280	118.562
910.408	110.687
910.537	119.800
910.665	113.250
910.793	113.963
910.921	117.075
911.049	111.237
911.177	109.500
911.305	115.450
911.433	111.350
911.562	111.912
911.690	111.662
911.818	119.775
911.946	112.213
912.074	112.437
912.202	110.937
912.330	112.513
912.458	115.537
912.587	116.275
912.715	114.912
912.843	111.925
912.971	115.400
913.099	115.150
913.227	116.312
913.355	114.050
913.483	113.750
913.612	113.588
913.740	139.775
913.868	117.362
