sample9_PS_at_750.00nm_cut_at_1008.00Y_01.dat
15.05.2023
11:06:51
cut middle at Y: 1008.00
top cursor: 1048 down cursor: 968 mean of: 80 lines , 2560 datapoints
wavelength(nm)	intensity[arb. units]
585.996	1094.875
586.124	1068.812
586.252	1076.138
586.380	1070.850
586.508	1069.425
586.637	1075.138
586.765	1066.213
586.893	1079.138
587.021	1077.812
587.149	1086.812
587.277	1091.987
587.405	1093.237
587.533	1082.975
587.662	1097.062
587.790	1107.575
587.918	1100.950
588.046	1116.275
588.174	1096.475
588.302	1102.600
588.430	1092.787
588.558	1098.362
588.687	1108.775
588.815	1131.575
588.943	1112.575
589.071	1107.463
589.199	1120.088
589.327	1109.725
589.455	1112.187
589.583	1122.213
589.712	1124.075
589.840	1122.812
589.968	1114.888
590.096	1128.075
590.224	1121.562
590.352	1122.862
590.480	1132.812
590.608	1130.175
590.737	1120.463
590.865	1134.875
590.993	1126.963
591.121	1135.600
591.249	1125.375
591.377	1130.088
591.505	1130.725
591.633	1129.375
591.762	1146.750
591.890	1137.000
592.018	1127.912
592.146	1150.975
592.274	1151.400
592.402	1145.287
592.530	1144.963
592.658	1148.138
592.787	1151.112
592.915	1146.650
593.043	1146.312
593.171	1155.213
593.299	1176.050
593.427	1165.600
593.555	1167.275
593.683	1163.350
593.812	1162.850
593.940	1176.888
594.068	1179.625
594.196	1199.075
594.324	1175.662
594.452	1186.375
594.580	1201.250
594.708	1185.175
594.837	1194.737
594.965	1198.662
595.093	1200.250
595.221	1205.088
595.349	1216.412
595.477	1216.687
595.605	1205.237
595.733	1238.175
595.862	1213.562
595.990	1216.862
596.118	1229.525
596.246	1234.638
596.374	1231.625
596.502	1251.450
596.630	1260.550
596.758	1254.650
596.887	1247.037
597.015	1262.037
597.143	1239.638
597.271	1263.850
597.399	1266.975
597.527	1265.825
597.655	1258.500
597.783	1270.662
597.912	1254.662
598.040	1274.737
598.168	1263.138
598.296	1277.213
598.424	1264.450
598.552	1275.075
598.680	1260.875
598.808	1274.487
598.937	1269.037
599.065	1278.350
599.193	1268.263
599.321	1256.612
599.449	1286.138
599.577	1260.263
599.705	1264.125
599.833	1270.388
599.962	1257.437
600.090	1271.575
600.218	1259.513
600.346	1271.138
600.474	1279.750
600.602	1276.713
600.730	1273.737
600.858	1299.187
600.987	1274.325
601.115	1268.625
601.243	1280.800
601.371	1277.475
601.499	1296.650
601.627	1292.862
601.755	1303.275
601.883	1292.662
602.012	1301.300
602.140	1293.900
602.268	1310.575
602.396	1318.700
602.524	1319.937
602.652	1320.662
602.780	1322.775
602.908	1319.125
603.037	1350.075
603.165	1331.750
603.293	1348.187
603.421	1344.763
603.549	1340.862
603.677	1376.800
603.805	1347.687
603.933	1358.125
604.062	1367.325
604.190	1392.750
604.318	1367.225
604.446	1394.400
604.574	1385.862
604.702	1387.525
604.830	1398.675
604.958	1414.850
605.087	1421.450
605.215	1414.787
605.343	1418.437
605.471	1414.687
605.599	1434.037
605.727	1425.638
605.855	1450.513
605.983	1426.900
606.112	1454.862
606.240	1449.975
606.368	1469.500
606.496	1470.463
606.624	1458.200
606.752	1460.263
606.880	1468.750
607.008	1472.700
607.137	1469.312
607.265	1485.112
607.393	1489.950
607.521	1478.487
607.649	1480.600
607.777	1468.600
607.905	1473.300
608.033	1492.100
608.162	1488.588
608.290	1487.475
608.418	1492.463
608.546	1492.537
608.674	1514.838
608.802	1499.787
608.930	1507.013
609.058	1494.675
609.187	1490.787
609.315	1485.062
609.443	1490.325
609.571	1502.338
609.699	1503.612
609.827	1478.713
609.955	1496.187
610.083	1495.350
610.212	1490.388
610.340	1489.088
610.468	1502.662
610.596	1502.850
610.724	1489.487
610.852	1513.225
610.980	1513.975
611.108	1495.550
611.237	1501.400
611.365	1503.263
611.493	1499.675
611.621	1507.237
611.749	1518.263
611.877	1513.362
612.005	1512.662
612.133	1503.075
612.262	1524.838
612.390	1521.525
612.518	1523.775
612.646	1521.925
612.774	1526.475
612.902	1533.612
613.030	1526.963
613.158	1532.200
613.287	1567.987
613.415	1529.412
613.543	1545.187
613.671	1552.300
613.799	1555.050
613.927	1538.388
614.055	1555.975
614.183	1570.062
614.312	1561.263
614.440	1565.487
614.568	1567.975
614.696	1582.612
614.824	1567.287
614.952	1584.500
615.080	1586.950
615.208	1573.187
615.337	1585.088
615.465	1595.112
615.593	1606.763
615.721	1599.088
615.849	1608.162
615.977	1605.388
616.105	1591.437
616.233	1630.525
616.362	1618.437
616.490	1604.588
616.618	1634.350
616.746	1614.838
616.874	1630.963
617.002	1639.912
617.130	1649.125
617.258	1639.888
617.387	1628.675
617.515	1651.138
617.643	1653.987
617.771	1641.775
617.899	1656.937
618.027	1640.325
618.155	1657.400
618.283	1648.775
618.412	1659.875
618.540	1654.300
618.668	1663.763
618.796	1653.838
618.924	1676.175
619.052	1668.600
619.180	1672.138
619.308	1668.338
619.437	1668.850
619.565	1666.825
619.693	1665.562
619.821	1669.900
619.949	1656.763
620.077	1667.725
620.205	1679.425
620.333	1679.763
620.462	1693.412
620.590	1686.925
620.718	1679.925
620.846	1675.350
620.974	1698.812
621.102	1679.275
621.230	1666.000
621.358	1703.775
621.487	1685.025
621.615	1683.088
621.743	1708.013
621.871	1683.812
621.999	1664.475
622.127	1681.200
622.255	1680.963
622.383	1684.912
622.512	1693.062
622.640	1685.675
622.768	1696.487
622.896	1682.638
623.024	1663.300
623.152	1710.687
623.280	1670.050
623.408	1681.525
623.537	1690.862
623.665	1692.225
623.793	1678.875
623.921	1678.600
624.049	1679.013
624.177	1687.275
624.305	1701.925
624.433	1690.437
624.562	1688.200
624.690	1672.850
624.818	1681.588
624.946	1698.662
625.074	1695.112
625.202	1693.888
625.330	1684.875
625.458	1690.725
625.587	1697.362
625.715	1680.125
625.843	1692.800
625.971	1700.375
626.099	1710.588
626.227	1710.338
626.355	1669.300
626.483	1695.150
626.612	1674.862
626.740	1681.975
626.868	1720.825
626.996	1702.125
627.124	1683.888
627.252	1675.250
627.380	1698.388
627.508	1700.500
627.637	1683.263
627.765	1696.737
627.893	1702.925
628.021	1690.200
628.149	1724.362
628.277	1731.875
628.405	1725.763
628.533	1709.537
628.662	1698.425
628.790	1698.112
628.918	1705.400
629.046	1702.388
629.174	1699.475
629.302	1733.275
629.430	1733.013
629.558	1726.350
629.687	1728.350
629.815	1724.312
629.943	1718.975
630.071	1721.550
630.199	1731.812
630.327	1726.088
630.455	1721.838
630.583	1745.787
630.712	1742.800
630.840	1727.388
630.968	1767.925
631.096	1759.263
631.224	1739.125
631.352	1744.162
631.480	1741.225
631.608	1748.463
631.737	1756.125
631.865	1783.912
631.993	1758.550
632.121	1762.125
632.249	1771.825
632.377	1775.875
632.505	1762.375
632.633	1757.775
632.762	1771.213
632.890	1776.412
633.018	1761.862
633.146	1771.112
633.274	1774.825
633.402	1762.888
633.530	1772.312
633.658	1777.700
633.787	1762.088
633.915	1759.400
634.043	1777.050
634.171	1766.013
634.299	1773.175
634.427	1762.500
634.555	1777.750
634.683	1785.937
634.812	1758.338
634.940	1763.687
635.068	1762.000
635.196	1766.875
635.324	1787.237
635.452	1783.537
635.580	1771.237
635.708	1767.263
635.837	1763.037
635.965	1758.237
636.093	1761.725
636.221	1761.350
636.349	1765.650
636.477	1751.862
636.605	1759.112
636.733	1750.350
636.862	1732.713
636.990	1740.787
637.118	1734.062
637.246	1727.325
637.374	1727.338
637.502	1724.638
637.630	1734.912
637.758	1738.750
637.887	1739.725
638.015	1728.463
638.143	1736.650
638.271	1721.475
638.399	1721.287
638.527	1704.325
638.655	1721.112
638.783	1730.725
638.912	1706.412
639.040	1684.187
639.168	1701.650
639.296	1703.800
639.424	1702.750
639.552	1713.725
639.680	1739.088
639.808	1703.787
639.937	1690.800
640.065	1704.263
640.193	1713.362
640.321	1691.662
640.449	1708.350
640.577	1708.675
640.705	1674.550
640.833	1695.450
640.962	1705.350
641.090	1697.463
641.218	1701.187
641.346	1674.588
641.474	1685.162
641.602	1675.088
641.730	1700.412
641.858	1697.625
641.987	1683.075
642.115	1714.937
642.243	1710.662
642.371	1715.537
642.499	1688.237
642.627	1707.050
642.755	1696.812
642.883	1711.237
643.012	1709.287
643.140	1696.200
643.268	1711.625
643.396	1717.700
643.524	1716.162
643.652	1709.437
643.780	1702.562
643.908	1710.862
644.037	1705.763
644.165	1697.013
644.293	1712.075
644.421	1692.600
644.549	1706.600
644.677	1726.287
644.805	1720.162
644.933	1695.513
645.062	1708.463
645.190	1701.088
645.318	1685.150
645.446	1717.187
645.574	1718.237
645.702	1705.950
645.830	1724.125
645.958	1729.937
646.087	1705.888
646.215	1713.550
646.343	1717.612
646.471	1720.750
646.599	1719.112
646.727	1701.575
646.855	1714.800
646.983	1709.187
647.112	1734.750
647.240	1731.800
647.368	1703.437
647.496	1711.787
647.624	1716.612
647.752	1716.187
647.880	1713.687
648.008	1733.375
648.137	1697.787
648.265	1712.275
648.393	1720.362
648.521	1726.450
648.649	1703.687
648.777	1696.600
648.905	1709.388
649.033	1685.525
649.162	1681.112
649.290	1704.325
649.418	1684.463
649.546	1691.450
649.674	1700.125
649.802	1682.650
649.930	1679.275
650.058	1688.562
650.187	1691.025
650.315	1704.862
650.443	1674.950
650.571	1692.062
650.699	1691.437
650.827	1698.800
650.955	1669.888
651.083	1676.937
651.212	1677.013
651.340	1658.950
651.468	1672.575
651.596	1656.513
651.724	1681.388
651.852	1673.537
651.980	1661.862
652.108	1669.537
652.237	1649.062
652.365	1636.912
652.493	1652.062
652.621	1657.225
652.749	1665.937
652.877	1653.713
653.005	1650.437
653.133	1664.800
653.262	1655.725
653.390	1643.787
653.518	1647.062
653.646	1649.250
653.774	1646.463
653.902	1668.900
654.030	1637.963
654.158	1629.550
654.287	1643.237
654.415	1634.575
654.543	1636.700
654.671	1623.888
654.799	1622.662
654.927	1631.350
655.055	1615.650
655.183	1612.588
655.312	1603.088
655.440	1631.625
655.568	1617.650
655.696	1604.125
655.824	1621.350
655.952	1630.800
656.080	1614.963
656.208	1620.987
656.337	1604.638
656.465	1611.487
656.593	1615.812
656.721	1620.550
656.849	1613.662
656.977	1604.400
657.105	1598.950
657.233	1603.487
657.362	1612.850
657.490	1595.425
657.618	1594.175
657.746	1603.562
657.874	1578.088
658.002	1595.175
658.130	1592.412
658.258	1587.963
658.387	1603.950
658.515	1580.450
658.643	1596.162
658.771	1581.388
658.899	1600.062
659.027	1587.425
659.155	1593.200
659.283	1580.800
659.412	1578.325
659.540	1584.513
659.668	1589.875
659.796	1571.088
659.924	1604.763
660.052	1571.175
660.180	1566.987
660.308	1582.750
660.437	1566.287
660.565	1588.037
660.693	1571.263
660.821	1584.125
660.949	1582.787
661.077	1564.237
661.205	1565.412
661.333	1556.862
661.462	1587.737
661.590	1590.675
661.718	1558.463
661.846	1565.437
661.974	1579.112
662.102	1550.187
662.230	1566.312
662.358	1559.487
662.487	1575.763
662.615	1554.138
662.743	1563.237
662.871	1559.300
662.999	1552.750
663.127	1550.425
663.255	1557.862
663.383	1568.750
663.512	1551.100
663.640	1557.963
663.768	1549.700
663.896	1562.112
664.024	1543.050
664.152	1554.425
664.280	1549.787
664.408	1545.750
664.537	1558.000
664.665	1554.412
664.793	1540.412
664.921	1544.112
665.049	1538.700
665.177	1567.025
665.305	1536.925
665.433	1547.312
665.562	1553.225
665.690	1542.400
665.818	1543.400
665.946	1541.700
666.074	1540.550
666.202	1545.600
666.330	1528.013
666.458	1535.025
666.587	1535.450
666.715	1544.800
666.843	1546.687
666.971	1526.250
667.099	1539.138
667.227	1551.575
667.355	1529.138
667.483	1531.450
667.612	1546.763
667.740	1541.263
667.868	1551.312
667.996	1545.562
668.124	1529.950
668.252	1546.412
668.380	1532.338
668.508	1548.150
668.637	1528.737
668.765	1535.388
668.893	1541.150
669.021	1543.300
669.149	1530.225
669.277	1540.312
669.405	1522.975
669.533	1537.213
669.662	1549.812
669.790	1530.412
669.918	1539.075
670.046	1524.100
670.174	1538.100
670.302	1520.937
670.430	1514.362
670.558	1517.537
670.687	1522.425
670.815	1526.687
670.943	1520.175
671.071	1512.713
671.199	1522.287
671.327	1522.375
671.455	1515.275
671.583	1514.888
671.712	1515.125
671.840	1512.362
671.968	1512.062
672.096	1495.075
672.224	1511.700
672.352	1509.013
672.480	1498.400
672.608	1502.325
672.737	1501.475
672.865	1485.162
672.993	1501.325
673.121	1501.825
673.249	1486.900
673.377	1496.950
673.505	1480.750
673.633	1486.537
673.762	1464.963
673.890	1496.700
674.018	1489.825
674.146	1476.625
674.274	1493.000
674.402	1472.713
674.530	1484.350
674.658	1471.487
674.787	1447.787
674.915	1452.700
675.043	1469.713
675.171	1461.550
675.299	1459.475
675.427	1458.138
675.555	1460.088
675.683	1457.112
675.812	1448.175
675.940	1463.662
676.068	1470.662
676.196	1452.750
676.324	1460.725
676.452	1448.650
676.580	1435.937
676.708	1435.925
676.837	1452.700
676.965	1443.312
677.093	1453.700
677.221	1428.675
677.349	1422.287
677.477	1419.537
677.605	1420.550
677.733	1427.362
677.862	1424.937
677.990	1417.638
678.118	1427.375
678.246	1403.775
678.374	1392.625
678.502	1406.638
678.630	1397.162
678.758	1397.537
678.887	1386.625
679.015	1410.112
679.143	1393.138
679.271	1389.513
679.399	1404.300
679.527	1382.100
679.655	1388.388
679.783	1390.925
679.912	1390.650
680.040	1389.750
680.168	1394.300
680.296	1373.275
680.424	1382.700
680.552	1370.312
680.680	1389.687
680.808	1368.787
680.937	1372.513
681.065	1375.725
681.193	1374.737
681.321	1393.612
681.449	1374.025
681.577	1371.713
681.705	1354.987
681.833	1350.075
681.962	1361.800
682.090	1363.412
682.218	1371.425
682.346	1354.100
682.474	1370.737
682.602	1372.537
682.730	1355.275
682.858	1340.475
682.987	1361.862
683.115	1345.675
683.243	1345.100
683.371	1350.575
683.499	1336.537
683.627	1358.125
683.755	1343.737
683.883	1347.900
684.012	1339.562
684.140	1335.963
684.268	1345.338
684.396	1347.725
684.524	1345.338
684.652	1350.687
684.780	1356.412
684.908	1331.312
685.037	1340.475
685.165	1335.825
685.293	1345.638
685.421	1333.325
685.549	1329.675
685.677	1339.375
685.805	1332.487
685.933	1336.800
686.062	1330.862
686.190	1333.150
686.318	1338.213
686.446	1342.937
686.574	1318.787
686.702	1347.175
686.830	1343.388
686.958	1324.463
687.087	1336.588
687.215	1311.100
687.343	1322.362
687.471	1322.250
687.599	1314.750
687.727	1320.537
687.855	1328.838
687.983	1317.050
688.112	1333.175
688.240	1309.487
688.368	1322.263
688.496	1325.275
688.624	1316.312
688.752	1307.287
688.880	1319.187
689.008	1307.650
689.137	1311.463
689.265	1315.900
689.393	1296.963
689.521	1311.975
689.649	1317.200
689.777	1317.600
689.905	1314.250
690.033	1319.013
690.162	1295.775
690.290	1302.000
690.418	1300.362
690.546	1318.600
690.674	1313.412
690.802	1298.912
690.930	1295.350
691.058	1286.775
691.187	1281.750
691.315	1297.888
691.443	1301.812
691.571	1280.287
691.699	1272.562
691.827	1285.175
691.955	1291.750
692.083	1279.537
692.212	1274.075
692.340	1288.725
692.468	1275.325
692.596	1271.950
692.724	1277.350
692.852	1274.737
692.980	1277.062
693.108	1255.975
693.237	1251.088
693.365	1266.388
693.493	1245.925
693.621	1249.787
693.749	1252.800
693.877	1250.300
694.005	1239.075
694.133	1256.425
694.262	1248.588
694.390	1229.888
694.518	1224.350
694.646	1239.275
694.774	1220.950
694.902	1230.388
695.030	1250.725
695.158	1215.562
695.287	1223.287
695.415	1217.912
695.543	1210.463
695.671	1211.350
695.799	1203.050
695.927	1210.200
696.055	1208.237
696.183	1220.187
696.312	1208.562
696.440	1191.013
696.568	1207.275
696.696	1193.763
696.824	1189.362
696.952	1184.713
697.080	1179.862
697.208	1202.300
697.337	1175.725
697.465	1169.950
697.593	1161.213
697.721	1169.263
697.849	1166.263
697.977	1165.025
698.105	1171.112
698.233	1170.638
698.362	1148.725
698.490	1156.862
698.618	1145.500
698.746	1144.537
698.874	1155.737
699.002	1142.062
699.130	1145.750
699.258	1149.825
699.387	1114.037
699.515	1135.500
699.643	1147.950
699.771	1133.963
699.899	1135.037
700.027	1135.000
700.155	1128.638
700.283	1129.463
700.412	1119.100
700.540	1117.537
700.668	1101.800
700.796	1123.713
700.924	1103.437
701.052	1114.537
701.180	1099.112
701.308	1102.375
701.437	1099.037
701.565	1093.787
701.693	1108.812
701.821	1109.925
701.949	1113.475
702.077	1078.975
702.205	1097.537
702.333	1090.325
702.462	1078.037
702.590	1085.250
702.718	1093.237
702.846	1080.187
702.974	1081.812
703.102	1066.875
703.230	1068.100
703.358	1045.825
703.487	1048.713
703.615	1061.375
703.743	1042.237
703.871	1063.300
703.999	1043.187
704.127	1046.412
704.255	1034.437
704.383	1036.675
704.512	1030.987
704.640	1030.763
704.768	1012.612
704.896	1030.025
705.024	1025.588
705.152	1022.425
705.280	1018.750
705.408	1005.900
705.537	1017.062
705.665	1009.000
705.793	1005.275
705.921	993.888
706.049	1012.925
706.177	992.800
706.305	997.250
706.433	999.862
706.562	991.013
706.690	990.388
706.818	978.750
706.946	978.450
707.074	970.775
707.202	969.175
707.330	965.500
707.458	976.400
707.587	963.300
707.715	971.087
707.843	963.638
707.971	964.175
708.099	962.525
708.227	951.437
708.355	936.812
708.483	947.025
708.612	941.437
708.740	943.525
708.868	942.750
708.996	945.000
709.124	950.975
709.252	930.950
709.380	924.013
709.508	913.675
709.637	923.650
709.765	921.625
709.893	911.437
710.021	917.650
710.149	902.800
710.277	915.888
710.405	911.275
710.533	896.050
710.662	906.538
710.790	912.175
710.918	900.962
711.046	897.638
711.174	897.687
711.302	888.600
711.430	886.437
711.558	903.875
711.687	875.775
711.815	884.500
711.943	892.913
712.071	880.925
712.199	883.825
712.327	870.587
712.455	875.612
712.583	867.850
712.712	881.850
712.840	871.850
712.968	855.875
713.096	869.587
713.224	860.087
713.352	848.937
713.480	845.862
713.608	848.250
713.737	846.437
713.865	846.750
713.993	840.350
714.121	827.375
714.249	839.538
714.377	834.812
714.505	843.800
714.633	822.625
714.762	823.675
714.890	833.487
715.018	820.500
715.146	819.388
715.274	815.600
715.402	803.937
715.530	815.225
715.658	807.763
715.787	804.237
715.915	813.163
716.043	797.975
716.171	809.362
716.299	811.850
716.427	804.362
716.555	797.825
716.683	793.712
716.812	796.538
716.940	792.775
717.068	775.625
717.196	791.975
717.324	785.825
717.452	780.000
717.580	776.437
717.708	775.825
717.837	787.175
717.965	771.275
718.093	769.450
718.221	764.962
718.349	766.975
718.477	764.500
718.605	764.025
718.733	762.763
718.862	757.413
718.990	750.650
719.118	753.750
719.246	748.500
719.374	746.775
719.502	757.475
719.630	761.000
719.758	740.750
719.887	741.925
720.015	749.112
720.143	731.900
720.271	736.550
720.399	739.750
720.527	741.525
720.655	720.888
720.783	730.375
720.912	734.212
721.040	734.675
721.168	714.013
721.296	722.062
721.424	718.337
721.552	720.600
721.680	716.388
721.808	711.962
721.937	707.013
722.065	709.325
722.193	695.600
722.321	699.600
722.449	703.625
722.577	699.112
722.705	688.763
722.833	696.712
722.962	699.775
723.090	681.962
723.218	684.275
723.346	676.350
723.474	688.075
723.602	682.812
723.730	669.350
723.858	684.212
723.987	680.163
724.115	667.225
724.243	666.212
724.371	664.638
724.499	671.913
724.627	665.062
724.755	659.862
724.883	663.200
725.012	656.937
725.140	654.425
725.268	656.362
725.396	650.663
725.524	648.200
725.652	650.087
725.780	641.788
725.908	633.163
726.037	640.750
726.165	635.337
726.293	622.812
726.421	631.175
726.549	644.788
726.677	623.987
726.805	633.175
726.933	624.275
727.062	611.675
727.190	619.400
727.318	617.138
727.446	618.487
727.574	618.250
727.702	610.500
727.830	603.962
727.958	611.650
728.087	602.725
728.215	598.712
728.343	592.288
728.471	607.587
728.599	596.138
728.727	597.837
728.855	588.375
728.983	591.937
729.112	583.175
729.240	585.663
729.368	582.450
729.496	581.325
729.624	586.337
729.752	580.362
729.880	575.538
730.008	572.400
730.137	578.413
730.265	569.950
730.393	575.950
730.521	565.550
730.649	569.663
730.777	568.737
730.905	554.325
731.033	563.163
731.162	559.638
731.290	559.487
731.418	557.975
731.546	565.462
731.674	542.525
731.802	542.562
731.930	551.250
732.058	545.962
732.187	548.413
732.315	533.250
732.443	544.587
732.571	536.050
732.699	537.575
732.827	528.525
732.955	525.300
733.083	525.975
733.212	523.362
733.340	530.750
733.468	524.087
733.596	523.788
733.724	515.487
733.852	520.587
733.980	518.737
734.108	518.687
734.237	524.525
734.365	510.812
734.493	512.712
734.621	509.837
734.749	509.738
734.877	505.788
735.005	501.512
735.133	505.913
735.262	508.800
735.390	496.562
735.518	493.125
735.646	502.550
735.774	494.488
735.902	502.613
736.030	493.250
736.158	494.775
736.287	484.238
736.415	491.575
736.543	487.400
736.671	472.962
736.799	485.175
736.927	493.187
737.055	485.262
737.183	473.512
737.312	481.538
737.440	479.975
737.568	496.400
737.696	475.925
737.824	472.325
737.952	485.850
738.080	482.750
738.208	473.087
738.337	465.163
738.465	473.788
738.593	463.913
738.721	452.587
738.849	462.775
738.977	469.000
739.105	458.087
739.233	454.975
739.362	451.875
739.490	449.488
739.618	443.950
739.746	455.637
739.874	461.400
740.002	449.325
740.130	449.337
740.258	445.775
740.387	441.387
740.515	432.975
740.643	440.950
740.771	448.575
740.899	440.962
741.027	435.600
741.155	442.613
741.283	423.062
741.412	433.900
741.540	429.288
741.668	423.413
741.796	419.738
741.924	433.625
742.052	425.837
742.180	421.962
742.308	422.212
742.437	418.350
742.565	427.050
742.693	422.450
742.821	420.200
742.949	408.488
743.077	416.650
743.205	413.062
743.333	412.462
743.462	414.400
743.590	408.562
743.718	403.863
743.846	407.400
743.974	401.887
744.102	401.150
744.230	400.925
744.358	396.875
744.487	413.262
744.615	397.500
744.743	408.775
744.871	391.225
744.999	396.625
745.127	386.887
745.255	385.413
745.383	393.062
745.512	394.238
745.640	388.575
745.768	385.175
745.896	377.950
746.024	383.750
746.152	380.150
746.280	384.387
746.408	386.950
746.537	384.325
746.665	383.025
746.793	380.738
746.921	376.363
747.049	374.687
747.177	377.538
747.305	368.937
747.433	373.825
747.562	368.113
747.690	364.275
747.818	367.000
747.946	371.025
748.074	384.788
748.202	368.363
748.330	360.687
748.458	368.250
748.587	362.150
748.715	354.212
748.843	357.712
748.971	354.375
749.099	358.587
749.227	352.550
749.355	348.100
749.483	358.712
749.612	346.488
749.740	347.462
749.868	347.100
749.996	351.750
750.124	347.812
750.252	342.387
750.380	349.675
750.508	343.675
750.637	337.437
750.765	345.363
750.893	338.325
751.021	339.975
751.149	336.937
751.277	347.062
751.405	345.663
751.533	348.613
751.662	339.863
751.790	352.775
751.918	343.637
752.046	332.437
752.174	328.762
752.302	331.525
752.430	335.750
752.558	331.238
752.687	332.387
752.815	332.837
752.943	325.550
753.071	319.750
753.199	323.325
753.327	329.587
753.455	320.212
753.583	314.050
753.712	320.825
753.840	321.525
753.968	321.100
754.096	317.937
754.224	312.175
754.352	310.175
754.480	309.087
754.608	310.550
754.737	311.200
754.865	314.775
754.993	311.900
755.121	310.812
755.249	316.437
755.377	303.913
755.505	307.300
755.633	323.212
755.762	299.950
755.890	310.300
756.018	309.712
756.146	300.800
756.274	304.913
756.402	295.000
756.530	299.413
756.658	302.062
756.787	293.250
756.915	288.738
757.043	295.113
757.171	296.488
757.299	292.725
757.427	299.363
757.555	292.200
757.683	297.725
757.812	289.212
757.940	292.538
758.068	287.887
758.196	286.163
758.324	289.687
758.452	284.012
758.580	282.762
758.708	281.538
758.837	281.113
758.965	288.637
759.093	277.637
759.221	275.500
759.349	279.700
759.477	271.762
759.605	269.887
759.733	276.700
759.862	277.750
759.990	266.212
760.118	273.775
760.246	270.212
760.374	273.475
760.502	270.350
760.630	271.462
760.758	261.125
760.887	259.800
761.015	264.312
761.143	265.512
761.271	257.675
761.399	264.062
761.527	264.163
761.655	258.212
761.783	259.075
761.912	256.413
762.040	261.413
762.168	259.975
762.296	256.675
762.424	251.838
762.552	249.562
762.680	256.850
762.808	248.162
762.937	256.212
763.065	256.113
763.193	252.213
763.321	246.800
763.449	242.175
763.577	243.700
763.705	250.637
763.833	268.525
763.962	239.637
764.090	241.887
764.218	241.187
764.346	241.475
764.474	234.512
764.602	241.775
764.730	238.512
764.858	235.425
764.987	243.687
765.115	245.338
765.243	251.512
765.371	232.700
765.499	227.425
765.627	236.575
765.755	231.125
765.883	228.963
766.012	232.637
766.140	227.988
766.268	229.338
766.396	231.162
766.524	227.650
766.652	224.988
766.780	226.512
766.908	223.625
767.037	223.600
767.165	223.775
767.293	231.700
767.421	219.687
767.549	219.363
767.677	228.338
767.805	214.425
767.933	221.075
768.062	222.137
768.190	220.687
768.318	214.838
768.446	227.600
768.574	227.250
768.702	222.250
768.830	213.562
768.958	216.463
769.087	217.375
769.215	216.850
769.343	215.213
769.471	214.150
769.599	216.925
769.727	208.363
769.855	213.687
769.983	205.825
770.112	209.588
770.240	209.988
770.368	212.925
770.496	204.387
770.624	203.775
770.752	210.625
770.880	217.600
771.008	210.875
771.137	205.887
771.265	206.863
771.393	204.113
771.521	204.713
771.649	200.700
771.777	204.287
771.905	206.700
772.033	210.412
772.162	205.463
772.290	205.787
772.418	208.850
772.546	193.850
772.674	196.162
772.802	200.637
772.930	200.512
773.058	193.137
773.187	203.062
773.315	203.287
773.443	202.300
773.571	196.750
773.699	192.488
773.827	190.425
773.955	198.950
774.083	208.800
774.212	195.562
774.340	191.412
774.468	192.800
774.596	193.312
774.724	199.125
774.852	186.900
774.980	196.738
775.108	187.787
775.237	181.875
775.365	188.762
775.493	186.275
775.621	185.250
775.749	189.037
775.877	191.787
776.005	181.588
776.133	188.550
776.262	188.175
776.390	177.738
776.518	192.700
776.646	178.613
776.774	178.238
776.902	185.713
777.030	181.025
777.158	182.000
777.287	187.662
777.415	181.762
777.543	179.200
777.671	177.275
777.799	174.450
777.927	181.687
778.055	184.437
778.183	180.687
778.312	172.025
778.440	175.275
778.568	175.937
778.696	172.988
778.824	182.613
778.952	176.025
779.080	178.100
779.208	179.050
779.337	178.512
779.465	182.375
779.593	172.750
779.721	184.213
779.849	172.200
779.977	173.250
780.105	168.787
780.233	175.375
780.362	181.162
780.490	172.812
780.618	170.825
780.746	173.713
780.874	165.562
781.002	168.125
781.130	169.475
781.258	167.850
781.387	177.312
781.515	166.350
781.643	165.475
781.771	175.100
781.899	167.262
782.027	171.000
782.155	169.338
782.283	162.437
782.412	168.800
782.540	172.100
782.668	164.238
782.796	161.750
782.924	168.912
783.052	157.338
783.180	167.950
783.308	160.637
783.437	164.213
783.565	168.912
783.693	164.912
783.821	166.150
783.949	161.025
784.077	162.325
784.205	164.875
784.333	171.725
784.462	157.287
784.590	164.613
784.718	161.287
784.846	154.075
784.974	164.238
785.102	170.550
785.230	158.075
785.358	169.062
785.487	159.650
785.615	159.662
785.743	155.700
785.871	152.850
785.999	158.400
786.127	151.125
786.255	162.187
786.383	162.787
786.512	158.550
786.640	152.625
786.768	162.550
786.896	154.387
787.024	157.637
787.152	153.475
787.280	152.475
787.408	154.637
787.537	151.975
787.665	149.412
787.793	155.463
787.921	157.775
788.049	149.750
788.177	149.250
788.305	149.137
788.433	154.037
788.562	151.637
788.690	145.137
788.818	147.912
788.946	146.650
789.074	142.863
789.202	151.988
789.330	150.338
789.458	147.012
789.587	148.725
789.715	148.713
789.843	150.863
789.971	142.500
790.099	142.375
790.227	150.050
790.355	142.162
790.483	147.912
790.612	145.363
790.740	147.100
790.868	149.363
790.996	148.925
791.124	144.463
791.252	146.050
791.380	149.338
791.508	143.738
791.637	153.738
791.765	140.300
791.893	139.125
792.021	150.150
792.149	140.662
792.277	143.713
792.405	143.200
792.533	150.162
792.662	137.475
792.790	142.338
792.918	148.625
793.046	137.150
793.174	140.975
793.302	143.062
793.430	144.825
793.558	150.775
793.687	139.787
793.815	144.500
793.943	142.738
794.071	143.600
794.199	135.400
794.327	138.800
794.455	160.787
794.583	154.675
794.712	142.262
794.840	139.588
794.968	141.950
795.096	148.450
795.224	139.300
795.352	135.475
795.480	142.687
795.608	140.537
795.737	141.225
795.865	139.113
795.993	133.300
796.121	134.825
796.249	141.463
796.377	137.187
796.505	140.725
796.633	138.588
796.762	137.037
796.890	144.713
797.018	135.988
797.146	134.725
797.274	131.250
797.402	133.075
797.530	137.750
797.658	137.937
797.787	145.675
797.915	134.713
798.043	139.950
798.171	141.713
798.299	137.675
798.427	134.125
798.555	134.975
798.683	133.137
798.812	136.825
798.940	137.550
799.068	136.375
799.196	141.463
799.324	128.037
799.452	137.588
799.580	134.675
799.708	142.887
799.837	131.725
799.965	133.037
800.093	133.875
800.221	133.425
800.349	133.600
800.477	133.050
800.605	133.800
800.733	137.387
800.862	136.387
800.990	149.350
801.118	135.375
801.246	127.963
801.374	130.325
801.502	135.025
801.630	126.800
801.758	129.262
801.887	132.975
802.015	128.613
802.143	127.412
802.271	130.912
802.399	132.350
802.527	134.750
802.655	133.637
802.783	136.187
802.912	135.187
803.040	132.287
803.168	126.638
803.296	127.162
803.424	129.150
803.552	128.025
803.680	127.500
803.808	128.838
803.937	128.775
804.065	130.550
804.193	130.088
804.321	139.925
804.449	125.475
804.577	128.175
804.705	128.988
804.833	130.200
804.962	131.000
805.090	123.475
805.218	135.937
805.346	126.687
805.474	126.300
805.602	139.312
805.730	124.575
805.858	124.287
805.987	134.137
806.115	133.738
806.243	127.013
806.371	118.687
806.499	124.450
806.627	120.825
806.755	129.625
806.883	122.787
807.012	123.600
807.140	127.412
807.268	124.787
807.396	130.312
807.524	119.750
807.652	126.138
807.780	140.037
807.908	124.525
808.037	131.812
808.165	127.588
808.293	122.375
808.421	134.812
808.549	121.775
808.677	120.862
808.805	133.875
808.933	120.888
809.062	124.575
809.190	143.100
809.318	124.675
809.446	121.562
809.574	131.625
809.702	124.300
809.830	120.975
809.958	125.775
810.087	121.475
810.215	132.512
810.343	134.750
810.471	124.075
810.599	121.812
810.727	123.638
810.855	117.787
810.983	123.937
811.112	126.625
811.240	121.537
811.368	124.850
811.496	129.275
811.624	123.763
811.752	116.787
811.880	119.900
812.008	117.750
812.137	123.388
812.265	117.550
812.393	120.088
812.521	123.875
812.649	121.450
812.777	118.987
812.905	125.825
813.033	117.050
813.162	114.888
813.290	116.850
813.418	119.388
813.546	119.750
813.674	115.225
813.802	122.362
813.930	116.987
814.058	113.750
814.187	117.300
814.315	120.475
814.443	117.250
814.571	110.075
814.699	124.425
814.827	118.200
814.955	115.287
815.083	114.900
815.212	121.088
815.340	121.562
815.468	116.862
815.596	118.175
815.724	118.812
815.852	114.300
815.980	116.088
816.108	115.950
816.237	117.875
816.365	119.525
816.493	117.200
816.621	113.425
816.749	115.075
816.877	119.000
817.005	118.975
817.133	117.013
817.262	114.812
817.390	122.338
817.518	112.350
817.646	118.850
817.774	115.987
817.902	121.112
818.030	113.812
818.158	121.888
818.287	118.213
818.415	111.550
818.543	114.687
818.671	119.425
818.799	116.925
818.927	116.937
819.055	116.700
819.183	116.525
819.312	115.088
819.440	116.737
819.568	112.800
819.696	123.338
819.824	119.575
819.952	114.112
820.080	113.750
820.208	116.275
820.337	114.300
820.465	116.400
820.593	114.575
820.721	116.675
820.849	113.000
820.977	111.763
821.105	114.950
821.233	112.625
821.362	115.125
821.490	112.763
821.618	113.725
821.746	112.650
821.874	112.362
822.002	115.925
822.130	112.912
822.258	111.425
822.387	114.937
822.515	112.112
822.643	110.838
822.771	111.350
822.899	112.963
823.027	111.713
823.155	108.325
823.283	113.412
823.412	115.250
823.540	114.588
823.668	129.812
823.796	112.525
823.924	117.300
824.052	119.950
824.180	112.150
824.308	111.013
824.437	111.612
824.565	111.050
824.693	113.875
824.821	112.925
824.949	116.013
825.077	115.838
825.205	120.338
825.333	115.662
825.462	117.350
825.590	110.400
825.718	115.812
825.846	113.700
825.974	112.263
826.102	115.037
826.230	113.013
826.358	111.775
826.487	109.200
826.615	108.725
826.743	109.888
826.871	112.487
826.999	111.225
827.127	116.125
827.255	110.750
827.383	108.963
827.512	111.763
827.640	111.675
827.768	109.862
827.896	112.088
828.024	111.312
828.152	110.237
828.280	113.000
828.408	111.350
828.537	109.912
828.665	108.888
828.793	109.450
828.921	109.388
829.049	110.912
829.177	109.825
829.305	108.362
829.433	109.925
829.562	111.725
829.690	109.638
829.818	114.862
829.946	114.537
830.074	108.037
830.202	113.763
830.330	111.100
830.458	118.775
830.587	110.787
830.715	108.225
830.843	108.775
830.971	110.675
831.099	114.562
831.227	108.225
831.355	107.025
831.483	108.900
831.612	110.925
831.740	107.437
831.868	120.963
831.996	108.825
832.124	108.838
832.252	105.312
832.380	108.737
832.508	111.750
832.637	109.575
832.765	112.213
832.893	116.675
833.021	113.437
833.149	110.362
833.277	108.937
833.405	108.075
833.533	106.450
833.662	109.888
833.790	110.325
833.918	110.963
834.046	111.050
834.174	112.213
834.302	109.088
834.430	109.463
834.558	109.200
834.687	108.825
834.815	107.400
834.943	110.312
835.071	109.437
835.199	108.325
835.327	112.600
835.455	106.250
835.583	108.650
835.712	108.200
835.840	110.138
835.968	106.037
836.096	108.775
836.224	110.800
836.352	107.963
836.480	110.662
836.608	114.500
836.737	109.675
836.865	108.925
836.993	106.987
837.121	107.062
837.249	107.562
837.377	109.800
837.505	108.588
837.633	108.550
837.762	108.075
837.890	109.287
838.018	114.050
838.146	107.737
838.274	111.213
838.402	111.750
838.530	106.700
838.658	104.138
838.787	108.300
838.915	109.925
839.043	109.763
839.171	113.975
839.299	108.200
839.427	107.112
839.555	116.200
839.683	112.350
839.812	108.650
839.940	106.062
840.068	109.100
840.196	106.963
840.324	112.812
840.452	110.950
840.580	111.187
840.708	109.912
840.837	109.312
840.965	109.513
841.093	109.225
841.221	107.963
841.349	107.862
841.477	108.825
841.605	106.325
841.733	107.763
841.862	110.150
841.990	110.025
842.118	106.325
842.246	104.650
842.374	104.787
842.502	106.000
842.630	107.537
842.758	109.775
842.887	107.213
843.015	107.463
843.143	108.400
843.271	111.325
843.399	111.287
843.527	105.513
843.655	108.375
843.783	107.675
843.912	107.450
844.040	109.425
844.168	114.763
844.296	114.750
844.424	110.062
844.552	113.263
844.680	109.787
844.808	114.075
844.937	108.325
845.065	104.213
845.193	110.237
845.321	105.312
845.449	103.900
845.577	105.937
845.705	108.037
845.833	106.287
845.962	104.850
846.090	105.713
846.218	105.463
846.346	108.125
846.474	107.325
846.602	106.888
846.730	106.187
846.858	104.325
846.987	106.775
847.115	106.412
847.243	111.287
847.371	110.287
847.499	108.050
847.627	105.713
847.755	104.800
847.883	107.050
848.012	108.575
848.140	106.362
848.268	108.612
848.396	107.713
848.524	107.487
848.652	106.950
848.780	104.475
848.908	109.088
849.037	110.437
849.165	106.812
849.293	105.487
849.421	107.325
849.549	106.662
849.677	108.287
849.805	110.388
849.933	110.662
850.062	106.838
850.190	107.250
850.318	108.225
850.446	106.975
850.574	106.263
850.702	106.325
850.830	109.138
850.958	107.937
851.087	107.425
851.215	107.025
851.343	109.450
851.471	105.575
851.599	106.175
851.727	110.650
851.855	109.200
851.983	108.713
852.112	108.162
852.240	107.350
852.368	105.675
852.496	106.025
852.624	106.912
852.752	105.575
852.880	104.612
853.008	108.125
853.137	108.463
853.265	106.075
853.393	110.350
853.521	112.725
853.649	112.263
853.777	106.450
853.905	108.437
854.033	110.338
854.162	109.025
854.290	107.450
854.418	105.250
854.546	107.575
854.674	108.737
854.802	108.325
854.930	107.550
855.058	103.513
855.187	103.263
855.315	104.250
855.443	102.450
855.571	105.550
855.699	106.862
855.827	109.312
855.955	109.900
856.083	107.150
856.212	105.125
856.340	107.037
856.468	114.888
856.596	111.513
856.724	110.338
856.852	106.013
856.980	106.625
857.108	107.287
857.237	107.963
857.365	108.362
857.493	107.537
857.621	106.213
857.749	103.025
857.877	110.150
858.005	108.125
858.133	108.037
858.262	106.100
858.390	108.112
858.518	105.750
858.646	105.950
858.774	107.312
858.902	107.375
859.030	107.425
859.158	104.150
859.287	104.275
859.415	106.875
859.543	104.225
859.671	107.675
859.799	109.187
859.927	110.013
860.055	110.862
860.183	108.275
860.312	104.975
860.440	106.300
860.568	110.338
860.696	108.300
860.824	120.263
860.952	106.900
861.080	105.763
861.208	105.088
861.337	107.050
861.465	106.737
861.593	111.175
861.721	105.963
861.849	105.237
861.977	105.588
862.105	105.625
862.233	104.100
862.362	107.187
862.490	105.075
862.618	104.388
862.746	105.275
862.874	105.625
863.002	107.638
863.130	109.412
863.258	107.937
863.387	109.437
863.515	108.562
863.643	106.687
863.771	105.362
863.899	106.225
864.027	104.187
864.155	105.912
864.283	106.950
864.412	106.338
864.540	105.463
864.668	104.600
864.796	105.325
864.924	106.437
865.052	104.912
865.180	105.287
865.308	104.037
865.437	107.388
865.565	108.338
865.693	106.638
865.821	105.362
865.949	104.362
866.077	106.862
866.205	104.925
866.333	105.150
866.462	105.713
866.590	104.338
866.718	106.600
866.846	105.687
866.974	109.338
867.102	108.937
867.230	104.612
867.358	108.213
867.487	107.062
867.615	104.350
867.743	104.287
867.871	108.937
867.999	106.775
868.127	107.312
868.255	117.088
868.383	109.737
868.512	107.037
868.640	109.888
868.768	107.713
868.896	107.525
869.024	110.187
869.152	107.675
869.280	107.437
869.408	105.675
869.537	105.550
869.665	105.213
869.793	106.013
869.921	110.625
870.049	109.713
870.177	108.713
870.305	117.737
870.433	108.550
870.562	106.050
870.690	103.925
870.818	105.275
870.946	104.525
871.074	106.100
871.202	107.237
871.330	107.000
871.458	106.200
871.587	104.388
871.715	104.062
871.843	105.300
871.971	105.787
872.099	108.475
872.227	106.412
872.355	107.300
872.483	105.950
872.612	107.250
872.740	107.600
872.868	102.412
872.996	108.300
873.124	108.700
873.252	108.575
873.380	107.562
873.508	106.975
873.637	104.900
873.765	107.437
873.893	109.862
874.021	109.725
874.149	109.162
874.277	107.075
874.405	111.287
874.533	107.125
874.662	324.913
874.790	106.875
874.918	111.125
875.046	107.800
875.174	110.400
875.302	103.937
875.430	106.175
875.558	107.475
875.687	111.037
875.815	105.713
875.943	106.175
876.071	107.525
876.199	106.725
876.327	110.275
876.455	108.088
876.583	104.437
876.712	107.350
876.840	110.025
876.968	106.888
877.096	106.625
877.224	106.725
877.352	104.775
877.480	104.125
877.608	106.350
877.737	106.338
877.865	104.937
877.993	107.725
878.121	105.612
878.249	106.062
878.377	106.138
878.505	104.850
878.633	104.237
878.762	105.225
878.890	104.400
879.018	103.513
879.146	107.013
879.274	107.725
879.402	104.675
879.530	104.763
879.658	108.013
879.787	107.725
879.915	108.162
880.043	105.437
880.171	106.200
880.299	107.388
880.427	108.400
880.555	109.687
880.683	109.088
880.812	107.838
880.940	106.800
881.068	106.112
881.196	107.437
881.324	108.275
881.452	107.437
881.580	110.125
881.708	109.600
881.837	104.500
881.965	105.838
882.093	106.050
882.221	104.638
882.349	111.850
882.477	109.375
882.605	114.225
882.733	108.750
882.862	107.013
882.990	104.112
883.118	108.575
883.246	108.500
883.374	108.612
883.502	105.550
883.630	105.200
883.758	106.300
883.887	104.575
884.015	104.600
884.143	108.963
884.271	107.612
884.399	106.687
884.527	106.500
884.655	105.150
884.783	105.713
884.912	104.450
885.040	104.050
885.168	106.100
885.296	103.325
885.424	104.963
885.552	109.088
885.680	104.550
885.808	105.912
885.937	109.800
886.065	112.075
886.193	106.375
886.321	104.737
886.449	106.912
886.577	107.275
886.705	106.925
886.833	104.600
886.962	105.075
887.090	105.263
887.218	105.963
887.346	106.013
887.474	112.187
887.602	108.187
887.730	105.888
887.858	110.437
887.987	110.763
888.115	113.537
888.243	109.175
888.371	108.287
888.499	108.925
888.627	106.425
888.755	104.862
888.883	104.375
889.012	104.662
889.140	105.925
889.268	111.375
889.396	112.725
889.524	108.937
889.652	107.575
889.780	108.600
889.908	106.050
890.037	106.800
890.165	106.375
890.293	108.187
890.421	119.475
890.549	109.200
890.677	109.125
890.805	105.513
890.933	105.475
891.062	102.963
891.190	108.037
891.318	111.500
891.446	110.263
891.574	109.125
891.702	105.138
891.830	105.475
891.958	105.737
892.087	111.162
892.215	107.825
892.343	109.450
892.471	108.088
892.599	110.075
892.727	113.750
892.855	107.875
892.983	107.525
893.112	108.713
893.240	111.088
893.368	109.963
893.496	109.338
893.624	109.375
893.752	111.100
893.880	105.675
894.008	107.187
894.137	108.200
894.265	107.475
894.393	109.138
894.521	109.213
894.649	107.362
894.777	104.437
894.905	106.925
895.033	114.162
895.162	106.700
895.290	109.625
895.418	108.263
895.546	110.175
895.674	108.775
895.802	107.412
895.930	109.537
896.058	107.775
896.187	106.812
896.315	106.200
896.443	109.175
896.571	111.138
896.699	108.612
896.827	106.325
896.955	108.112
897.083	107.287
897.212	106.600
897.340	105.037
897.468	106.388
897.596	106.400
897.724	107.562
897.852	116.250
897.980	109.162
898.108	106.100
898.237	104.650
898.365	103.450
898.493	105.437
898.621	108.575
898.749	106.213
898.877	106.300
899.005	107.662
899.133	107.325
899.262	108.000
899.390	107.375
899.518	110.425
899.646	109.862
899.774	115.187
899.902	118.925
900.030	108.150
900.158	109.350
900.287	111.300
900.415	106.200
900.543	108.375
900.671	111.275
900.799	108.525
900.927	110.150
901.055	105.825
901.183	106.250
901.312	108.050
901.440	111.100
901.568	110.213
901.696	107.138
901.824	109.088
901.952	113.388
902.080	111.713
902.208	108.588
902.337	111.400
902.465	108.888
902.593	113.175
902.721	112.737
902.849	110.013
902.977	109.287
903.105	113.838
903.233	115.375
903.362	110.950
903.490	111.112
903.618	105.838
903.746	108.888
903.874	106.075
904.002	109.275
904.130	112.525
904.258	109.400
904.387	107.750
904.515	107.638
904.643	107.575
904.771	108.737
904.899	108.112
905.027	109.713
905.155	106.713
905.283	109.350
905.412	107.425
905.540	108.925
905.668	105.025
905.796	107.150
905.924	107.150
906.052	111.250
906.180	109.737
906.308	114.263
906.437	111.088
906.565	109.437
906.693	107.537
906.821	109.450
906.949	108.000
907.077	109.775
907.205	112.013
907.333	110.350
907.462	110.250
907.590	110.312
907.718	110.312
907.846	109.638
907.974	110.963
908.102	106.787
908.230	110.287
908.358	115.375
908.487	111.537
908.615	111.162
908.743	113.775
908.871	132.475
908.999	111.763
909.127	108.662
909.255	108.463
909.383	107.975
909.512	111.725
909.640	112.187
909.768	111.575
909.896	119.575
910.024	115.525
910.152	113.625
910.280	121.600
910.408	113.162
910.537	114.612
910.665	114.737
910.793	116.612
910.921	116.737
911.049	109.838
911.177	111.250
911.305	116.550
911.433	112.412
911.562	112.287
911.690	110.025
911.818	122.475
911.946	112.650
912.074	110.825
912.202	114.237
912.330	116.338
912.458	113.050
912.587	118.200
912.715	117.075
912.843	115.450
912.971	113.575
913.099	116.862
913.227	115.625
913.355	116.013
913.483	114.225
913.612	115.037
913.740	128.162
913.868	116.475
