sample16_PS_at_750.00nm_cut_at_1008.00Y_01.dat
15.05.2023
12:35:04
cut middle at Y: 1008.00
top cursor: 1048 down cursor: 968 mean of: 80 lines , 2560 datapoints
wavelength(nm)	intensity[arb. units]
585.996	2086.088
586.124	2035.600
586.252	2017.475
586.380	1999.037
586.508	2005.737
586.637	2005.150
586.765	1995.562
586.893	1995.425
587.021	2018.675
587.149	2002.400
587.277	2008.713
587.405	2035.888
587.533	1985.062
587.662	2022.400
587.790	2029.612
587.918	2020.075
588.046	2013.350
588.174	2007.000
588.302	2021.888
588.430	2002.450
588.558	2004.350
588.687	2020.812
588.815	2048.375
588.943	2025.325
589.071	2020.937
589.199	2022.713
589.327	2013.013
589.455	1988.625
589.583	2013.362
589.712	2020.150
589.840	2009.425
589.968	1998.100
590.096	2005.138
590.224	1985.838
590.352	1986.263
590.480	1985.450
590.608	1996.463
590.737	1990.537
590.865	1986.375
590.993	1989.912
591.121	1985.713
591.249	1996.662
591.377	1982.200
591.505	1982.588
591.633	1971.412
591.762	1994.287
591.890	1997.750
592.018	1979.312
592.146	1982.862
592.274	2004.625
592.402	1988.625
592.530	1970.675
592.658	1986.400
592.787	1978.175
592.915	1985.037
593.043	1977.513
593.171	1970.612
593.299	1997.937
593.427	1965.362
593.555	1985.350
593.683	1980.838
593.812	1977.400
593.940	2001.400
594.068	1992.112
594.196	2009.713
594.324	1976.425
594.452	2003.475
594.580	2007.763
594.708	2005.275
594.837	2002.300
594.965	2021.400
595.093	2009.088
595.221	2016.162
595.349	2029.713
595.477	2032.875
595.605	2012.525
595.733	2041.975
595.862	2047.625
595.990	2035.237
596.118	2040.275
596.246	2057.475
596.374	2066.562
596.502	2063.650
596.630	2050.787
596.758	2054.562
596.887	2073.637
597.015	2065.150
597.143	2036.838
597.271	2067.325
597.399	2071.400
597.527	2072.262
597.655	2056.900
597.783	2065.062
597.912	2048.600
598.040	2072.925
598.168	2068.562
598.296	2042.250
598.424	2052.800
598.552	2062.125
598.680	2039.638
598.808	2064.725
598.937	2066.088
599.065	2057.725
599.193	2065.713
599.321	2034.487
599.449	2049.037
599.577	2038.950
599.705	2030.775
599.833	2023.225
599.962	2022.025
600.090	2038.812
600.218	2023.888
600.346	2056.050
600.474	2037.213
600.602	2032.100
600.730	2034.213
600.858	2042.675
600.987	2043.000
601.115	2023.650
601.243	2017.388
601.371	2034.400
601.499	2030.112
601.627	2034.687
601.755	2049.075
601.883	2048.700
602.012	2068.537
602.140	2045.013
602.268	2083.775
602.396	2059.150
602.524	2065.925
602.652	2054.800
602.780	2059.175
602.908	2068.725
603.037	2086.387
603.165	2080.363
603.293	2101.937
603.421	2102.450
603.549	2098.037
603.677	2141.437
603.805	2105.775
603.933	2114.825
604.062	2150.437
604.190	2158.175
604.318	2122.925
604.446	2171.113
604.574	2151.738
604.702	2167.512
604.830	2158.150
604.958	2179.350
605.087	2203.562
605.215	2190.412
605.343	2191.762
605.471	2211.500
605.599	2207.925
605.727	2202.762
605.855	2239.350
605.983	2213.750
606.112	2234.238
606.240	2237.738
606.368	2247.762
606.496	2279.725
606.624	2243.150
606.752	2254.762
606.880	2306.537
607.008	2314.300
607.137	2317.787
607.265	2267.387
607.393	2291.275
607.521	2325.762
607.649	2263.125
607.777	2268.850
607.905	2282.437
608.033	2298.762
608.162	2278.325
608.290	2315.562
608.418	2295.887
608.546	2315.387
608.674	2317.713
608.802	2278.437
608.930	2298.812
609.058	2280.500
609.187	2300.238
609.315	2316.625
609.443	2268.025
609.571	2315.925
609.699	2289.525
609.827	2294.963
609.955	2300.488
610.083	2286.900
610.212	2291.875
610.340	2288.488
610.468	2297.000
610.596	2305.775
610.724	2294.137
610.852	2288.412
610.980	2293.575
611.108	2306.512
611.237	2271.325
611.365	2297.113
611.493	2288.400
611.621	2300.900
611.749	2302.238
611.877	2302.687
612.005	2304.437
612.133	2305.037
612.262	2301.100
612.390	2308.488
612.518	2320.950
612.646	2356.062
612.774	2305.937
612.902	2316.062
613.030	2320.387
613.158	2341.225
613.287	2365.750
613.415	2323.988
613.543	2333.700
613.671	2334.800
613.799	2355.875
613.927	2342.713
614.055	2355.900
614.183	2409.312
614.312	2349.825
614.440	2400.738
614.568	2376.637
614.696	2381.012
614.824	2427.512
614.952	2381.850
615.080	2397.000
615.208	2417.050
615.337	2418.713
615.465	2407.762
615.593	2421.725
615.721	2443.937
615.849	2453.675
615.977	2451.187
616.105	2465.213
616.233	2464.475
616.362	2509.900
616.490	2457.850
616.618	2457.050
616.746	2495.363
616.874	2520.562
617.002	2487.812
617.130	2528.775
617.258	2568.113
617.387	2499.588
617.515	2498.963
617.643	2529.937
617.771	2527.363
617.899	2544.525
618.027	2514.762
618.155	2568.062
618.283	2521.650
618.412	2539.875
618.540	2569.912
618.668	2562.262
618.796	2536.088
618.924	2614.150
619.052	2569.488
619.180	2567.988
619.308	2581.988
619.437	2569.963
619.565	2594.787
619.693	2571.050
619.821	2575.750
619.949	2572.512
620.077	2597.687
620.205	2604.375
620.333	2616.637
620.462	2619.750
620.590	2646.900
620.718	2614.825
620.846	2639.150
620.974	2672.863
621.102	2635.725
621.230	2615.887
621.358	2680.088
621.487	2606.250
621.615	2625.175
621.743	2638.075
621.871	2642.175
621.999	2655.412
622.127	2656.200
622.255	2628.825
622.383	2632.113
622.512	2643.412
622.640	2695.812
622.768	2629.637
622.896	2632.287
623.024	2612.812
623.152	2670.863
623.280	2636.375
623.408	2619.012
623.537	2650.238
623.665	2620.375
623.793	2658.887
623.921	2631.375
624.049	2623.037
624.177	2651.588
624.305	2649.500
624.433	2676.338
624.562	2653.150
624.690	2647.350
624.818	2686.725
624.946	2718.525
625.074	2666.088
625.202	2663.725
625.330	2640.287
625.458	2673.012
625.587	2663.925
625.715	2671.375
625.843	2713.425
625.971	2673.437
626.099	2668.200
626.227	2682.637
626.355	2657.687
626.483	2719.287
626.612	2644.925
626.740	2648.562
626.868	2689.912
626.996	2661.500
627.124	2669.863
627.252	2655.637
627.380	2690.287
627.508	2665.225
627.637	2669.700
627.765	2708.113
627.893	2698.625
628.021	2679.137
628.149	2721.062
628.277	2733.375
628.405	2748.387
628.533	2699.725
628.662	2708.687
628.790	2706.437
628.918	2725.925
629.046	2729.512
629.174	2720.812
629.302	2784.012
629.430	2747.113
629.558	2740.575
629.687	2758.113
629.815	2748.750
629.943	2781.162
630.071	2791.762
630.199	2778.950
630.327	2789.800
630.455	2757.175
630.583	2806.762
630.712	2813.762
630.840	2811.238
630.968	2844.713
631.096	2814.650
631.224	2806.775
631.352	2824.550
631.480	2833.988
631.608	2826.463
631.737	2879.375
631.865	2942.687
631.993	2861.412
632.121	2909.838
632.249	2907.525
632.377	2899.650
632.505	2885.800
632.633	2853.050
632.762	2919.887
632.890	2942.588
633.018	2870.575
633.146	2893.575
633.274	2909.537
633.402	2901.988
633.530	2865.213
633.658	2996.562
633.787	2893.775
633.915	2939.850
634.043	2926.450
634.171	2926.238
634.299	2947.287
634.427	2977.675
634.555	2960.000
634.683	2931.000
634.812	2912.762
634.940	2944.488
635.068	2904.287
635.196	2936.925
635.324	2936.488
635.452	2989.613
635.580	2922.662
635.708	2929.550
635.837	2948.812
635.965	2944.113
636.093	2929.000
636.221	2921.275
636.349	2987.262
636.477	2897.113
636.605	3037.875
636.733	2906.150
636.862	2906.425
636.990	2939.437
637.118	2980.175
637.246	2928.963
637.374	2914.975
637.502	2902.775
637.630	2907.225
637.758	2924.625
637.887	2913.312
638.015	2905.775
638.143	2899.912
638.271	2902.588
638.399	2891.787
638.527	2871.750
638.655	2889.600
638.783	2974.062
638.912	2916.400
639.040	2889.200
639.168	2889.062
639.296	2886.863
639.424	2963.275
639.552	2850.950
639.680	2919.750
639.808	2900.713
639.937	2860.637
640.065	2876.600
640.193	2906.187
640.321	2875.213
640.449	2910.437
640.577	2929.400
640.705	2876.550
640.833	2938.687
640.962	2871.812
641.090	2859.675
641.218	2856.975
641.346	2876.450
641.474	2883.825
641.602	2867.887
641.730	2874.162
641.858	2875.000
641.987	2887.150
642.115	2872.325
642.243	2909.762
642.371	2895.100
642.499	2894.550
642.627	2875.725
642.755	2948.662
642.883	2945.137
643.012	2903.225
643.140	2881.975
643.268	2909.912
643.396	2902.425
643.524	2995.600
643.652	2904.012
643.780	2913.937
643.908	2899.637
644.037	2986.250
644.165	2901.875
644.293	2929.363
644.421	2898.725
644.549	2964.125
644.677	2929.113
644.805	2947.863
644.933	2906.775
645.062	2916.887
645.190	2920.287
645.318	2958.175
645.446	2958.750
645.574	2937.113
645.702	2926.550
645.830	3031.312
645.958	2946.075
646.087	3034.912
646.215	2925.325
646.343	3053.863
646.471	2969.887
646.599	2990.900
646.727	2937.250
646.855	2954.437
646.983	2976.512
647.112	2941.713
647.240	3057.650
647.368	2961.187
647.496	2990.437
647.624	2945.100
647.752	2937.312
647.880	2947.750
648.008	2959.100
648.137	2936.850
648.265	2940.450
648.393	2931.588
648.521	2947.738
648.649	2956.050
648.777	2940.175
648.905	2945.012
649.033	2925.125
649.162	2942.975
649.290	2936.525
649.418	2953.588
649.546	2942.262
649.674	2962.800
649.802	2945.637
649.930	2981.363
650.058	2902.925
650.187	2926.325
650.315	2911.625
650.443	2941.300
650.571	2928.600
650.699	2900.037
650.827	2909.500
650.955	2911.250
651.083	2911.350
651.212	2939.137
651.340	2928.100
651.468	2898.250
651.596	2889.687
651.724	2878.387
651.852	2887.012
651.980	2870.562
652.108	2923.725
652.237	2884.287
652.365	2917.963
652.493	2857.512
652.621	2840.937
652.749	2903.963
652.877	2850.525
653.005	2864.762
653.133	2861.175
653.262	2872.050
653.390	2846.475
653.518	2878.550
653.646	2832.025
653.774	2912.187
653.902	2873.062
654.030	2837.687
654.158	2825.838
654.287	2821.725
654.415	2848.450
654.543	2833.113
654.671	2849.812
654.799	2809.675
654.927	2816.350
655.055	2801.700
655.183	2794.262
655.312	2798.812
655.440	2823.213
655.568	2786.825
655.696	2831.037
655.824	2833.250
655.952	2793.825
656.080	2761.787
656.208	2848.050
656.337	2766.925
656.465	2790.875
656.593	2822.475
656.721	2771.475
656.849	2794.762
656.977	2759.738
657.105	2766.687
657.233	2747.300
657.362	2751.250
657.490	2745.450
657.618	2754.850
657.746	2752.088
657.874	2739.137
658.002	2713.400
658.130	2719.125
658.258	2708.262
658.387	2743.488
658.515	2688.775
658.643	2724.887
658.771	2697.613
658.899	2716.375
659.027	2710.037
659.155	2723.300
659.283	2766.662
659.412	2703.588
659.540	2735.675
659.668	2695.725
659.796	2699.100
659.924	2730.137
660.052	2705.125
660.180	2686.838
660.308	2704.850
660.437	2683.162
660.565	2675.275
660.693	2681.225
660.821	2651.762
660.949	2678.350
661.077	2655.525
661.205	2668.925
661.333	2632.425
661.462	2700.262
661.590	2676.375
661.718	2709.575
661.846	2661.838
661.974	2699.887
662.102	2653.738
662.230	2647.687
662.358	2632.925
662.487	2633.625
662.615	2613.137
662.743	2607.738
662.871	2618.012
662.999	2609.675
663.127	2587.850
663.255	2644.437
663.383	2650.650
663.512	2600.588
663.640	2604.662
663.768	2587.750
663.896	2608.113
664.024	2588.912
664.152	2588.550
664.280	2601.412
664.408	2576.488
664.537	2594.088
664.665	2541.150
664.793	2549.100
664.921	2545.400
665.049	2565.025
665.177	2580.312
665.305	2554.450
665.433	2556.812
665.562	2558.238
665.690	2546.012
665.818	2622.412
665.946	2554.287
666.074	2540.875
666.202	2530.850
666.330	2558.500
666.458	2546.225
666.587	2495.800
666.715	2523.187
666.843	2535.062
666.971	2491.912
667.099	2519.687
667.227	2528.075
667.355	2507.075
667.483	2486.550
667.612	2504.225
667.740	2513.475
667.868	2535.338
667.996	2497.363
668.124	2487.700
668.252	2493.250
668.380	2487.312
668.508	2511.300
668.637	2488.887
668.765	2471.187
668.893	2500.512
669.021	2470.625
669.149	2484.312
669.277	2486.937
669.405	2457.150
669.533	2466.512
669.662	2549.100
669.790	2461.713
669.918	2493.200
670.046	2439.800
670.174	2487.025
670.302	2473.650
670.430	2440.812
670.558	2460.925
670.687	2427.075
670.815	2473.450
670.943	2421.637
671.071	2417.238
671.199	2426.975
671.327	2409.588
671.455	2413.675
671.583	2405.187
671.712	2435.238
671.840	2398.450
671.968	2397.937
672.096	2376.412
672.224	2371.875
672.352	2430.937
672.480	2367.550
672.608	2354.113
672.737	2351.113
672.865	2395.412
672.993	2349.713
673.121	2344.225
673.249	2348.713
673.377	2319.437
673.505	2327.537
673.633	2321.963
673.762	2298.588
673.890	2334.213
674.018	2372.787
674.146	2300.125
674.274	2307.387
674.402	2336.400
674.530	2310.500
674.658	2284.588
674.787	2260.075
674.915	2263.012
675.043	2271.738
675.171	2269.787
675.299	2257.012
675.427	2256.412
675.555	2237.775
675.683	2230.637
675.812	2228.838
675.940	2222.200
676.068	2217.713
676.196	2213.137
676.324	2217.662
676.452	2181.912
676.580	2184.375
676.708	2196.500
676.837	2233.000
676.965	2169.750
677.093	2192.225
677.221	2169.187
677.349	2167.050
677.477	2178.338
677.605	2134.738
677.733	2188.475
677.862	2128.312
677.990	2139.875
678.118	2132.537
678.246	2121.863
678.374	2115.412
678.502	2111.425
678.630	2086.450
678.758	2088.775
678.887	2094.350
679.015	2091.300
679.143	2071.512
679.271	2078.025
679.399	2069.900
679.527	2060.850
679.655	2048.900
679.783	2056.500
679.912	2052.050
680.040	2042.487
680.168	2041.950
680.296	2031.687
680.424	2038.963
680.552	2035.888
680.680	2049.412
680.808	2015.500
680.937	2002.713
681.065	2017.500
681.193	2010.300
681.321	2020.525
681.449	1997.912
681.577	1984.375
681.705	1975.812
681.833	1972.525
681.962	1968.700
682.090	2012.838
682.218	1958.350
682.346	1954.650
682.474	1973.000
682.602	1961.125
682.730	1960.325
682.858	1956.713
682.987	1972.750
683.115	1946.338
683.243	1934.875
683.371	1928.162
683.499	1913.987
683.627	1961.225
683.755	1927.075
683.883	1968.513
684.012	1928.650
684.140	1908.450
684.268	1913.662
684.396	1912.675
684.524	1910.888
684.652	1920.213
684.780	1933.263
684.908	1910.513
685.037	1896.437
685.165	1899.300
685.293	1891.138
685.421	1905.175
685.549	1883.062
685.677	1876.475
685.805	1894.875
685.933	1883.138
686.062	1849.825
686.190	1871.000
686.318	1878.725
686.446	1873.975
686.574	1866.062
686.702	1889.312
686.830	1866.500
686.958	1841.425
687.087	1843.737
687.215	1848.437
687.343	1838.775
687.471	1837.112
687.599	1828.825
687.727	1852.425
687.855	1840.588
687.983	1832.550
688.112	1839.325
688.240	1802.487
688.368	1822.275
688.496	1820.963
688.624	1819.200
688.752	1783.787
688.880	1787.400
689.008	1785.787
689.137	1789.550
689.265	1787.850
689.393	1785.325
689.521	1771.287
689.649	1788.675
689.777	1767.500
689.905	1771.900
690.033	1779.375
690.162	1758.838
690.290	1753.138
690.418	1744.187
690.546	1766.575
690.674	1748.950
690.802	1747.725
690.930	1735.200
691.058	1739.312
691.187	1722.287
691.315	1731.588
691.443	1734.562
691.571	1707.150
691.699	1703.013
691.827	1719.112
691.955	1695.150
692.083	1692.013
692.212	1723.225
692.340	1698.687
692.468	1681.562
692.596	1671.437
692.724	1699.225
692.852	1657.075
692.980	1679.875
693.108	1647.450
693.237	1647.388
693.365	1639.213
693.493	1636.713
693.621	1613.900
693.749	1619.763
693.877	1623.100
694.005	1626.437
694.133	1624.100
694.262	1598.325
694.390	1591.800
694.518	1587.500
694.646	1595.900
694.774	1593.250
694.902	1589.025
695.030	1613.612
695.158	1559.862
695.287	1576.400
695.415	1552.237
695.543	1568.900
695.671	1551.963
695.799	1544.737
695.927	1545.138
696.055	1539.213
696.183	1546.925
696.312	1532.900
696.440	1538.225
696.568	1520.700
696.696	1510.100
696.824	1513.013
696.952	1497.350
697.080	1483.487
697.208	1501.437
697.337	1476.325
697.465	1480.875
697.593	1473.312
697.721	1473.013
697.849	1473.600
697.977	1472.800
698.105	1469.112
698.233	1463.312
698.362	1446.800
698.490	1449.912
698.618	1450.062
698.746	1433.825
698.874	1448.112
699.002	1448.550
699.130	1425.150
699.258	1430.588
699.387	1396.362
699.515	1411.862
699.643	1431.150
699.771	1426.037
699.899	1406.162
700.027	1396.312
700.155	1397.237
700.283	1406.875
700.412	1382.150
700.540	1364.537
700.668	1371.013
700.796	1371.775
700.924	1353.975
701.052	1357.812
701.180	1352.050
701.308	1360.450
701.437	1335.950
701.565	1346.463
701.693	1340.437
701.821	1356.750
701.949	1349.875
702.077	1314.162
702.205	1326.112
702.333	1321.000
702.462	1318.350
702.590	1317.250
702.718	1317.013
702.846	1299.125
702.974	1308.638
703.102	1299.437
703.230	1299.425
703.358	1284.600
703.487	1282.700
703.615	1276.175
703.743	1263.675
703.871	1266.075
703.999	1261.213
704.127	1251.425
704.255	1245.275
704.383	1245.987
704.512	1233.338
704.640	1247.025
704.768	1227.800
704.896	1230.475
705.024	1227.850
705.152	1215.025
705.280	1209.187
705.408	1211.687
705.537	1206.850
705.665	1203.750
705.793	1210.513
705.921	1194.300
706.049	1204.350
706.177	1187.250
706.305	1173.612
706.433	1184.400
706.562	1175.950
706.690	1166.950
706.818	1157.075
706.946	1161.487
707.074	1147.200
707.202	1147.463
707.330	1148.500
707.458	1161.412
707.587	1125.375
707.715	1140.250
707.843	1135.900
707.971	1133.037
708.099	1126.912
708.227	1107.625
708.355	1112.562
708.483	1112.200
708.612	1105.350
708.740	1104.050
708.868	1099.638
708.996	1099.862
709.124	1107.162
709.252	1080.612
709.380	1082.575
709.508	1070.700
709.637	1078.050
709.765	1074.925
709.893	1071.575
710.021	1064.350
710.149	1061.487
710.277	1079.000
710.405	1057.550
710.533	1057.388
710.662	1050.338
710.790	1056.088
710.918	1039.300
711.046	1032.600
711.174	1038.187
711.302	1036.963
711.430	1032.638
711.558	1031.537
711.687	1016.087
711.815	1020.737
711.943	1027.138
712.071	1012.663
712.199	1010.288
712.327	1017.525
712.455	1009.112
712.583	1012.475
712.712	1015.300
712.840	995.450
712.968	996.425
713.096	989.737
713.224	978.950
713.352	984.612
713.480	976.437
713.608	980.562
713.737	964.875
713.865	960.487
713.993	965.425
714.121	960.700
714.249	961.587
714.377	961.325
714.505	960.825
714.633	956.312
714.762	937.513
714.890	941.687
715.018	932.825
715.146	925.750
715.274	929.525
715.402	925.150
715.530	928.712
715.658	929.250
715.787	921.638
715.915	922.200
716.043	911.825
716.171	912.712
716.299	930.825
716.427	908.112
716.555	908.775
716.683	905.025
716.812	900.612
716.940	894.325
717.068	884.737
717.196	891.913
717.324	894.525
717.452	890.337
717.580	883.325
717.708	880.437
717.837	896.587
717.965	867.212
718.093	870.600
718.221	863.175
718.349	868.763
718.477	869.163
718.605	856.750
718.733	863.075
718.862	854.087
718.990	847.200
719.118	847.850
719.246	847.962
719.374	844.737
719.502	852.138
719.630	846.275
719.758	835.700
719.887	833.075
720.015	831.025
720.143	833.187
720.271	820.300
720.399	827.538
720.527	831.825
720.655	816.788
720.783	819.650
720.912	811.250
721.040	821.638
721.168	818.950
721.296	807.038
721.424	807.987
721.552	804.013
721.680	794.875
721.808	802.888
721.937	808.237
722.065	795.737
722.193	781.112
722.321	790.263
722.449	779.812
722.577	785.025
722.705	775.288
722.833	771.013
722.962	777.825
723.090	771.075
723.218	768.638
723.346	763.025
723.474	764.337
723.602	765.225
723.730	755.038
723.858	760.200
723.987	753.288
724.115	740.350
724.243	747.800
724.371	752.587
724.499	750.200
724.627	749.850
724.755	744.612
724.883	739.112
725.012	735.000
725.140	732.750
725.268	730.562
725.396	724.725
725.524	715.712
725.652	720.175
725.780	716.675
725.908	719.575
726.037	714.625
726.165	705.850
726.293	695.788
726.421	702.675
726.549	709.925
726.677	698.788
726.805	696.600
726.933	697.200
727.062	686.175
727.190	687.687
727.318	692.788
727.446	683.850
727.574	687.975
727.702	684.925
727.830	681.263
727.958	686.737
728.087	673.050
728.215	674.362
728.343	668.062
728.471	665.425
728.599	657.925
728.727	661.888
728.855	662.850
728.983	651.163
729.112	651.038
729.240	665.100
729.368	647.987
729.496	648.663
729.624	651.100
729.752	644.750
729.880	642.987
730.008	643.150
730.137	637.087
730.265	632.875
730.393	633.475
730.521	625.725
730.649	641.062
730.777	635.475
730.905	625.263
731.033	622.913
731.162	619.525
731.290	622.225
731.418	614.612
731.546	641.937
731.674	609.112
731.802	613.263
731.930	617.425
732.058	607.200
732.187	616.075
732.315	603.663
732.443	604.325
732.571	591.225
732.699	592.388
732.827	601.862
732.955	591.775
733.083	587.300
733.212	593.375
733.340	581.700
733.468	588.750
733.596	585.788
733.724	583.550
733.852	587.525
733.980	581.225
734.108	585.250
734.237	594.737
734.365	570.600
734.493	581.400
734.621	565.388
734.749	577.237
734.877	568.163
735.005	567.388
735.133	569.300
735.262	575.538
735.390	557.212
735.518	564.388
735.646	554.850
735.774	556.575
735.902	558.138
736.030	549.288
736.158	563.337
736.287	552.487
736.415	551.650
736.543	548.750
736.671	548.712
736.799	540.687
736.927	557.975
737.055	544.650
737.183	536.750
737.312	542.150
737.440	541.837
737.568	549.812
737.696	537.600
737.824	534.913
737.952	543.000
738.080	535.413
738.208	540.788
738.337	523.812
738.465	534.300
738.593	517.163
738.721	520.625
738.849	519.800
738.977	524.150
739.105	516.038
739.233	519.837
739.362	518.400
739.490	514.525
739.618	511.212
739.746	508.275
739.874	509.887
740.002	511.375
740.130	506.012
740.258	507.038
740.387	504.100
740.515	492.613
740.643	492.562
740.771	507.500
740.899	496.825
741.027	495.125
741.155	495.025
741.283	489.488
741.412	489.913
741.540	487.500
741.668	485.400
741.796	482.712
741.924	494.137
742.052	481.387
742.180	480.887
742.308	487.950
742.437	478.887
742.565	486.488
742.693	482.488
742.821	471.000
742.949	476.413
743.077	473.150
743.205	471.437
743.333	470.825
743.462	471.550
743.590	475.775
743.718	464.288
743.846	462.150
743.974	456.175
744.102	458.637
744.230	465.187
744.358	455.712
744.487	465.837
744.615	451.425
744.743	461.113
744.871	444.538
744.999	453.650
745.127	449.600
745.255	444.863
745.383	450.825
745.512	447.225
745.640	442.175
745.768	441.925
745.896	437.087
746.024	438.100
746.152	436.387
746.280	435.850
746.408	446.850
746.537	436.587
746.665	440.288
746.793	429.113
746.921	433.700
747.049	430.738
747.177	435.212
747.305	425.450
747.433	429.475
747.562	420.363
747.690	417.863
747.818	423.900
747.946	422.850
748.074	440.725
748.202	422.988
748.330	413.613
748.458	417.538
748.587	411.538
748.715	405.663
748.843	415.337
748.971	412.200
749.099	408.312
749.227	411.475
749.355	403.413
749.483	404.887
749.612	401.225
749.740	399.812
749.868	399.538
749.996	404.512
750.124	399.750
750.252	393.375
750.380	400.812
750.508	392.262
750.637	390.025
750.765	394.325
750.893	391.462
751.021	396.750
751.149	386.900
751.277	396.163
751.405	391.087
751.533	400.587
751.662	392.712
751.790	399.475
751.918	394.262
752.046	385.988
752.174	377.587
752.302	390.163
752.430	382.750
752.558	379.087
752.687	378.663
752.815	387.788
752.943	374.775
753.071	369.725
753.199	373.163
753.327	378.775
753.455	367.350
753.583	363.800
753.712	371.212
753.840	366.950
753.968	367.650
754.096	361.137
754.224	361.575
754.352	357.625
754.480	362.150
754.608	359.850
754.737	353.363
754.865	360.825
754.993	361.887
755.121	350.600
755.249	360.800
755.377	351.137
755.505	349.113
755.633	371.275
755.762	344.275
755.890	359.738
756.018	355.250
756.146	346.600
756.274	348.562
756.402	340.538
756.530	345.262
756.658	349.962
756.787	339.900
756.915	333.750
757.043	346.350
757.171	335.200
757.299	330.425
757.427	339.125
757.555	333.325
757.683	339.312
757.812	334.087
757.940	336.975
758.068	327.775
758.196	326.950
758.324	327.000
758.452	326.437
758.580	324.975
758.708	327.512
758.837	317.337
758.965	333.225
759.093	323.437
759.221	318.225
759.349	316.238
759.477	316.050
759.605	311.437
759.733	317.275
759.862	321.500
759.990	311.175
760.118	316.475
760.246	311.687
760.374	313.062
760.502	314.900
760.630	308.937
760.758	305.387
760.887	302.050
761.015	307.913
761.143	304.850
761.271	302.325
761.399	298.675
761.527	302.450
761.655	301.375
761.783	296.562
761.912	290.038
762.040	296.250
762.168	292.175
762.296	291.750
762.424	290.712
762.552	293.613
762.680	295.312
762.808	294.512
762.937	293.837
763.065	289.762
763.193	294.087
763.321	287.387
763.449	279.925
763.577	282.212
763.705	285.075
763.833	310.400
763.962	279.762
764.090	278.937
764.218	281.100
764.346	282.675
764.474	274.325
764.602	279.538
764.730	276.988
764.858	276.863
764.987	278.587
765.115	286.650
765.243	286.962
765.371	266.200
765.499	269.488
765.627	268.712
765.755	268.100
765.883	269.800
766.012	272.675
766.140	263.613
766.268	268.538
766.396	264.475
766.524	265.975
766.652	262.712
766.780	265.062
766.908	260.025
767.037	260.863
767.165	260.625
767.293	263.125
767.421	260.762
767.549	255.537
767.677	264.712
767.805	251.525
767.933	260.512
768.062	257.363
768.190	257.325
768.318	251.200
768.446	268.863
768.574	262.738
768.702	254.075
768.830	255.550
768.958	248.900
769.087	258.562
769.215	249.037
769.343	248.537
769.471	256.300
769.599	250.762
769.727	247.450
769.855	247.800
769.983	245.338
770.112	248.675
770.240	248.387
770.368	247.588
770.496	240.062
770.624	242.725
770.752	242.512
770.880	251.875
771.008	244.088
771.137	242.175
771.265	244.075
771.393	239.850
771.521	238.238
771.649	235.662
771.777	237.300
771.905	241.000
772.033	238.975
772.162	241.863
772.290	236.863
772.418	245.625
772.546	230.062
772.674	232.863
772.802	235.775
772.930	236.900
773.058	227.463
773.187	235.238
773.315	235.775
773.443	232.050
773.571	229.825
773.699	224.363
773.827	226.125
773.955	234.762
774.083	240.912
774.212	231.287
774.340	229.175
774.468	229.950
774.596	224.975
774.724	232.850
774.852	219.825
774.980	227.437
775.108	221.725
775.237	219.975
775.365	219.762
775.493	218.637
775.621	222.600
775.749	220.550
775.877	227.200
776.005	216.988
776.133	220.500
776.262	222.250
776.390	213.550
776.518	224.338
776.646	211.887
776.774	218.238
776.902	222.537
777.030	214.500
777.158	218.350
777.287	216.687
777.415	215.287
777.543	206.250
777.671	210.363
777.799	209.375
777.927	211.350
778.055	213.912
778.183	217.375
778.312	207.675
778.440	204.775
778.568	210.475
778.696	203.213
778.824	214.175
778.952	209.775
779.080	207.137
779.208	212.200
779.337	210.725
779.465	210.512
779.593	205.250
779.721	215.325
779.849	203.613
779.977	203.512
780.105	199.600
780.233	206.838
780.362	214.525
780.490	207.200
780.618	202.550
780.746	200.113
780.874	199.863
781.002	196.637
781.130	200.262
781.258	197.150
781.387	203.512
781.515	203.037
781.643	200.088
781.771	206.287
781.899	199.937
782.027	194.887
782.155	196.738
782.283	193.125
782.412	196.200
782.540	199.550
782.668	196.088
782.796	187.662
782.924	194.713
783.052	186.825
783.180	196.550
783.308	190.137
783.437	190.800
783.565	198.713
783.693	193.675
783.821	198.925
783.949	189.800
784.077	191.562
784.205	193.125
784.333	202.713
784.462	184.225
784.590	191.762
784.718	187.988
784.846	184.012
784.974	186.762
785.102	197.650
785.230	192.137
785.358	195.600
785.487	187.275
785.615	190.150
785.743	187.113
785.871	182.887
785.999	187.850
786.127	178.338
786.255	193.725
786.383	195.025
786.512	182.338
786.640	180.537
786.768	189.963
786.896	180.550
787.024	182.562
787.152	180.175
787.280	181.012
787.408	183.400
787.537	182.925
787.665	183.650
787.793	182.137
787.921	179.037
788.049	176.675
788.177	177.475
788.305	176.037
788.433	182.137
788.562	177.975
788.690	170.187
788.818	176.363
788.946	175.800
789.074	172.875
789.202	177.525
789.330	174.037
789.458	174.613
789.587	175.050
789.715	175.613
789.843	177.162
789.971	171.963
790.099	170.588
790.227	174.825
790.355	172.525
790.483	176.012
790.612	174.588
790.740	173.775
790.868	177.838
790.996	172.537
791.124	173.475
791.252	171.037
791.380	172.625
791.508	168.762
791.637	181.363
791.765	166.787
791.893	167.325
792.021	175.387
792.149	168.787
792.277	170.537
792.405	167.700
792.533	180.225
792.662	163.075
792.790	168.650
792.918	174.162
793.046	160.050
793.174	168.500
793.302	168.725
793.430	167.500
793.558	174.350
793.687	162.637
793.815	174.187
793.943	170.988
794.071	166.062
794.199	160.988
794.327	166.125
794.455	183.363
794.583	182.125
794.712	169.088
794.840	166.537
794.968	160.738
795.096	167.062
795.224	158.675
795.352	156.137
795.480	162.988
795.608	165.700
795.737	164.988
795.865	163.312
795.993	157.787
796.121	157.550
796.249	164.037
796.377	160.650
796.505	163.375
796.633	163.375
796.762	157.137
796.890	169.037
797.018	162.012
797.146	156.500
797.274	155.387
797.402	154.675
797.530	159.000
797.658	157.900
797.787	163.675
797.915	157.213
798.043	160.200
798.171	160.162
798.299	159.463
798.427	156.375
798.555	155.238
798.683	150.225
798.812	155.350
798.940	155.687
799.068	158.912
799.196	162.387
799.324	152.238
799.452	158.800
799.580	150.200
799.708	163.887
799.837	149.738
799.965	152.312
800.093	156.963
800.221	155.262
800.349	155.850
800.477	151.637
800.605	153.887
800.733	155.488
800.862	155.650
800.990	167.787
801.118	158.350
801.246	149.887
801.374	154.437
801.502	153.537
801.630	150.387
801.758	150.550
801.887	154.012
802.015	149.088
802.143	149.500
802.271	150.213
802.399	149.787
802.527	153.625
802.655	154.762
802.783	157.250
802.912	150.838
803.040	148.300
803.168	144.375
803.296	141.925
803.424	148.588
803.552	148.275
803.680	146.500
803.808	149.262
803.937	145.600
804.065	145.738
804.193	144.937
804.321	157.787
804.449	146.525
804.577	146.363
804.705	145.075
804.833	148.675
804.962	146.025
805.090	143.375
805.218	150.588
805.346	145.700
805.474	144.537
805.602	161.500
805.730	145.088
805.858	141.338
805.987	149.838
806.115	150.025
806.243	142.950
806.371	141.037
806.499	141.700
806.627	138.137
806.755	148.238
806.883	138.937
807.012	143.050
807.140	146.863
807.268	139.650
807.396	146.738
807.524	138.312
807.652	141.537
807.780	154.088
807.908	137.988
808.037	149.588
808.165	145.187
808.293	142.488
808.421	153.725
808.549	138.500
808.677	134.488
808.805	150.787
808.933	137.875
809.062	140.800
809.190	161.912
809.318	141.250
809.446	142.787
809.574	146.450
809.702	141.075
809.830	138.937
809.958	143.912
810.087	141.863
810.215	147.025
810.343	151.825
810.471	145.425
810.599	135.963
810.727	139.700
810.855	131.662
810.983	137.887
811.112	140.037
811.240	136.738
811.368	139.912
811.496	145.925
811.624	140.088
811.752	137.088
811.880	134.125
812.008	128.963
812.137	135.750
812.265	132.200
812.393	136.525
812.521	135.838
812.649	135.650
812.777	133.925
812.905	145.537
813.033	129.075
813.162	136.400
813.290	132.287
813.418	142.963
813.546	134.875
813.674	134.950
813.802	140.075
813.930	135.925
814.058	128.963
814.187	137.762
814.315	135.863
814.443	136.750
814.571	132.912
814.699	143.150
814.827	134.950
814.955	140.887
815.083	134.488
815.212	135.037
815.340	134.762
815.468	130.400
815.596	132.012
815.724	131.037
815.852	138.687
815.980	131.525
816.108	132.687
816.237	132.512
816.365	136.037
816.493	137.750
816.621	130.113
816.749	130.412
816.877	132.275
817.005	135.687
817.133	131.338
817.262	125.338
817.390	137.450
817.518	127.200
817.646	132.787
817.774	127.625
817.902	132.963
818.030	125.162
818.158	131.175
818.287	132.387
818.415	125.225
818.543	127.013
818.671	137.875
818.799	131.825
818.927	134.100
819.055	130.425
819.183	126.900
819.312	127.138
819.440	134.125
819.568	130.600
819.696	136.050
819.824	131.600
819.952	126.750
820.080	125.612
820.208	130.637
820.337	125.875
820.465	133.850
820.593	128.162
820.721	130.450
820.849	128.363
820.977	124.263
821.105	130.213
821.233	125.425
821.362	138.375
821.490	128.088
821.618	128.162
821.746	125.862
821.874	124.625
822.002	124.225
822.130	125.362
822.258	122.412
822.387	127.825
822.515	127.537
822.643	123.662
822.771	129.075
822.899	127.412
823.027	123.763
823.155	121.588
823.283	123.750
823.412	129.113
823.540	124.612
823.668	146.825
823.796	124.037
823.924	131.125
824.052	128.713
824.180	121.850
824.308	130.887
824.437	126.575
824.565	123.213
824.693	125.412
824.821	125.013
824.949	127.237
825.077	125.025
825.205	128.075
825.333	128.387
825.462	130.500
825.590	120.888
825.718	126.338
825.846	127.912
825.974	128.137
826.102	127.100
826.230	124.812
826.358	123.812
826.487	124.375
826.615	132.937
826.743	123.100
826.871	130.125
826.999	125.213
827.127	126.400
827.255	123.875
827.383	120.638
827.512	129.800
827.640	124.838
827.768	118.575
827.896	121.513
828.024	120.425
828.152	124.588
828.280	122.225
828.408	124.000
828.537	119.925
828.665	121.850
828.793	121.950
828.921	119.275
829.049	124.312
829.177	119.963
829.305	119.737
829.433	120.638
829.562	121.925
829.690	119.025
829.818	124.275
829.946	120.662
830.074	117.450
830.202	125.275
830.330	125.463
830.458	128.488
830.587	119.737
830.715	116.412
830.843	118.425
830.971	120.850
831.099	121.725
831.227	120.100
831.355	119.725
831.483	120.725
831.612	123.375
831.740	121.250
831.868	136.875
831.996	114.550
832.124	118.475
832.252	113.037
832.380	121.388
832.508	122.912
832.637	121.625
832.765	121.175
832.893	128.850
833.021	120.588
833.149	118.062
833.277	114.225
833.405	114.600
833.533	113.987
833.662	115.937
833.790	120.662
833.918	121.050
834.046	125.775
834.174	125.275
834.302	119.487
834.430	116.362
834.558	124.763
834.687	118.275
834.815	121.787
834.943	119.388
835.071	116.213
835.199	121.950
835.327	124.025
835.455	115.062
835.583	119.225
835.712	119.487
835.840	119.475
835.968	119.050
836.096	126.650
836.224	122.900
836.352	117.250
836.480	117.862
836.608	122.812
836.737	112.687
836.865	114.100
836.993	118.287
837.121	116.312
837.249	119.562
837.377	124.862
837.505	118.500
837.633	119.812
837.762	115.325
837.890	124.825
838.018	127.150
838.146	118.138
838.274	121.088
838.402	122.650
838.530	116.312
838.658	114.350
838.787	118.412
838.915	115.638
839.043	117.175
839.171	125.237
839.299	119.325
839.427	116.162
839.555	125.750
839.683	117.400
839.812	113.975
839.940	114.487
840.068	114.463
840.196	116.675
840.324	117.850
840.452	118.175
840.580	117.987
840.708	119.537
840.837	117.450
840.965	114.550
841.093	118.425
841.221	126.425
841.349	117.100
841.477	118.737
841.605	121.400
841.733	112.875
841.862	118.225
841.990	115.000
842.118	117.650
842.246	110.600
842.374	113.225
842.502	118.838
842.630	117.450
842.758	118.513
842.887	115.287
843.015	116.638
843.143	118.200
843.271	116.487
843.399	119.463
843.527	114.213
843.655	115.525
843.783	115.763
843.912	117.500
844.040	119.625
844.168	125.138
844.296	120.187
844.424	115.375
844.552	121.900
844.680	121.138
844.808	119.650
844.937	113.912
845.065	116.750
845.193	119.025
845.321	115.425
845.449	114.687
845.577	115.487
845.705	113.463
845.833	115.513
845.962	114.675
846.090	115.013
846.218	123.987
846.346	118.912
846.474	119.775
846.602	111.775
846.730	111.275
846.858	118.425
846.987	112.000
847.115	114.150
847.243	120.475
847.371	118.100
847.499	115.362
847.627	111.675
847.755	112.850
847.883	116.513
848.012	120.100
848.140	118.550
848.268	115.050
848.396	112.388
848.524	111.838
848.652	112.825
848.780	110.263
848.908	115.100
849.037	113.175
849.165	114.425
849.293	116.312
849.421	121.050
849.549	116.638
849.677	121.575
849.805	120.287
849.933	118.862
850.062	114.725
850.190	115.800
850.318	113.200
850.446	113.062
850.574	111.513
850.702	113.350
850.830	115.250
850.958	116.775
851.087	112.975
851.215	122.963
851.343	114.600
851.471	113.787
851.599	112.162
851.727	115.150
851.855	115.250
851.983	118.787
852.112	114.112
852.240	115.138
852.368	112.787
852.496	107.825
852.624	109.662
852.752	110.900
852.880	109.600
853.008	116.900
853.137	119.362
853.265	113.025
853.393	116.013
853.521	117.425
853.649	119.987
853.777	112.075
853.905	112.338
854.033	113.025
854.162	112.463
854.290	112.687
854.418	106.950
854.546	114.362
854.674	116.362
854.802	110.463
854.930	113.562
855.058	109.963
855.187	108.825
855.315	111.150
855.443	108.537
855.571	110.662
855.699	110.237
855.827	112.963
855.955	113.425
856.083	116.325
856.212	116.263
856.340	113.437
856.468	116.500
856.596	115.250
856.724	117.150
856.852	113.375
856.980	114.050
857.108	116.612
857.237	118.825
857.365	113.525
857.493	113.487
857.621	110.250
857.749	111.263
857.877	119.187
858.005	117.362
858.133	114.500
858.262	110.275
858.390	111.787
858.518	108.987
858.646	111.787
858.774	111.475
858.902	111.487
859.030	111.225
859.158	108.787
859.287	112.425
859.415	112.013
859.543	110.013
859.671	113.737
859.799	115.638
859.927	114.425
860.055	116.888
860.183	112.987
860.312	114.138
860.440	111.625
860.568	115.112
860.696	111.925
860.824	126.800
860.952	111.487
861.080	111.812
861.208	108.737
861.337	113.525
861.465	113.700
861.593	116.062
861.721	110.987
861.849	113.975
861.977	112.812
862.105	116.900
862.233	112.713
862.362	113.638
862.490	110.912
862.618	113.612
862.746	111.013
862.874	113.062
863.002	114.600
863.130	115.400
863.258	114.000
863.387	115.275
863.515	113.763
863.643	110.125
863.771	110.963
863.899	112.975
864.027	111.037
864.155	110.625
864.283	109.650
864.412	110.900
864.540	110.650
864.668	109.825
864.796	117.638
864.924	112.125
865.052	118.200
865.180	112.400
865.308	109.950
865.437	112.812
865.565	116.612
865.693	119.787
865.821	112.475
865.949	111.187
866.077	113.100
866.205	112.425
866.333	109.550
866.462	114.450
866.590	111.050
866.718	113.187
866.846	110.562
866.974	112.575
867.102	114.888
867.230	117.250
867.358	112.112
867.487	113.225
867.615	111.325
867.743	113.325
867.871	117.550
867.999	113.900
868.127	112.500
868.255	121.650
868.383	120.112
868.512	113.338
868.640	113.050
868.768	111.987
868.896	111.763
869.024	116.388
869.152	119.350
869.280	112.687
869.408	113.350
869.537	113.362
869.665	118.025
869.793	111.162
869.921	117.225
870.049	113.638
870.177	112.650
870.305	120.888
870.433	117.175
870.562	110.687
870.690	113.425
870.818	109.500
870.946	111.987
871.074	109.700
871.202	114.013
871.330	109.912
871.458	110.588
871.587	110.412
871.715	109.838
871.843	110.088
871.971	113.263
872.099	109.725
872.227	112.200
872.355	111.925
872.483	111.162
872.612	113.013
872.740	112.662
872.868	108.075
872.996	112.400
873.124	111.862
873.252	115.950
873.380	112.775
873.508	114.737
873.637	113.412
873.765	112.850
873.893	113.312
874.021	112.612
874.149	112.900
874.277	112.150
874.405	117.300
874.533	112.150
874.662	346.488
874.790	118.675
874.918	119.312
875.046	117.037
875.174	112.875
875.302	114.575
875.430	112.900
875.558	115.638
875.687	117.000
875.815	112.550
875.943	114.950
876.071	117.450
876.199	114.550
876.327	117.612
876.455	116.213
876.583	117.425
876.712	113.050
876.840	113.250
876.968	110.713
877.096	114.700
877.224	111.687
877.352	107.825
877.480	109.975
877.608	111.950
877.737	112.925
877.865	110.975
877.993	113.000
878.121	110.237
878.249	116.475
878.377	113.975
878.505	110.975
878.633	111.475
878.762	109.537
878.890	114.100
879.018	119.100
879.146	110.725
879.274	110.625
879.402	114.513
879.530	108.937
879.658	117.025
879.787	113.900
879.915	110.537
880.043	111.300
880.171	113.600
880.299	110.550
880.427	111.388
880.555	111.562
880.683	112.525
880.812	110.150
880.940	116.725
881.068	113.312
881.196	110.850
881.324	112.237
881.452	112.437
881.580	113.463
881.708	114.800
881.837	108.687
881.965	110.037
882.093	109.862
882.221	112.588
882.349	117.775
882.477	116.412
882.605	116.963
882.733	116.237
882.862	113.638
882.990	114.138
883.118	115.000
883.246	123.338
883.374	114.475
883.502	116.475
883.630	110.025
883.758	113.575
883.887	109.250
884.015	109.200
884.143	112.200
884.271	113.325
884.399	114.037
884.527	113.825
884.655	112.150
884.783	114.487
884.912	111.687
885.040	109.888
885.168	106.600
885.296	117.075
885.424	112.412
885.552	117.600
885.680	113.175
885.808	110.437
885.937	113.450
886.065	113.625
886.193	112.912
886.321	111.625
886.449	111.088
886.577	110.350
886.705	111.925
886.833	113.937
886.962	113.037
887.090	113.088
887.218	111.950
887.346	114.862
887.474	122.300
887.602	115.088
887.730	111.175
887.858	114.900
887.987	113.937
888.115	119.375
888.243	116.812
888.371	115.838
888.499	115.537
888.627	111.650
888.755	108.437
888.883	109.088
889.012	110.850
889.140	112.975
889.268	119.050
889.396	126.775
889.524	110.025
889.652	111.612
889.780	115.050
889.908	111.775
890.037	114.412
890.165	108.912
890.293	112.912
890.421	111.213
890.549	113.925
890.677	119.850
890.805	113.937
890.933	113.550
891.062	109.737
891.190	119.213
891.318	118.625
891.446	115.250
891.574	110.300
891.702	112.150
891.830	113.487
891.958	114.138
892.087	116.187
892.215	113.862
892.343	115.675
892.471	113.450
892.599	115.875
892.727	117.975
892.855	111.362
892.983	111.412
893.112	114.062
893.240	116.013
893.368	111.300
893.496	111.975
893.624	114.888
893.752	116.437
893.880	117.687
894.008	115.000
894.137	120.237
894.265	119.100
894.393	115.250
894.521	115.812
894.649	112.687
894.777	111.013
894.905	113.375
895.033	119.875
895.162	116.850
895.290	120.187
895.418	118.450
895.546	120.763
895.674	122.912
895.802	112.388
895.930	112.987
896.058	110.612
896.187	110.487
896.315	113.888
896.443	117.237
896.571	115.300
896.699	113.687
896.827	113.213
896.955	113.100
897.083	112.900
897.212	116.400
897.340	111.975
897.468	114.150
897.596	116.750
897.724	111.763
897.852	117.763
897.980	113.312
898.108	111.237
898.237	110.838
898.365	109.025
898.493	112.050
898.621	111.237
898.749	111.562
898.877	111.650
899.005	112.412
899.133	112.500
899.262	112.875
899.390	110.225
899.518	111.013
899.646	112.875
899.774	120.325
899.902	124.800
900.030	115.687
900.158	114.150
900.287	117.713
900.415	111.275
900.543	113.638
900.671	118.562
900.799	114.187
900.927	113.675
901.055	109.588
901.183	115.925
901.312	109.300
901.440	114.763
901.568	115.588
901.696	116.487
901.824	113.662
901.952	120.263
902.080	120.987
902.208	117.100
902.337	116.875
902.465	113.725
902.593	113.625
902.721	113.963
902.849	116.888
902.977	113.175
903.105	118.650
903.233	119.025
903.362	118.162
903.490	113.037
903.618	111.275
903.746	118.625
903.874	114.138
904.002	114.075
904.130	115.562
904.258	113.600
904.387	111.375
904.515	111.450
904.643	109.925
904.771	112.075
904.899	118.088
905.027	114.537
905.155	111.338
905.283	114.350
905.412	123.100
905.540	115.650
905.668	112.037
905.796	111.338
905.924	113.312
906.052	114.312
906.180	115.850
906.308	118.375
906.437	116.625
906.565	119.862
906.693	114.612
906.821	111.487
906.949	112.263
907.077	113.625
907.205	115.975
907.333	116.263
907.462	114.662
907.590	118.013
907.718	118.737
907.846	112.625
907.974	114.050
908.102	112.750
908.230	114.800
908.358	123.737
908.487	116.525
908.615	117.112
908.743	113.725
908.871	124.275
908.999	116.037
909.127	118.162
909.255	113.325
909.383	115.513
909.512	117.725
909.640	123.125
909.768	118.075
909.896	125.925
910.024	117.300
910.152	119.437
910.280	123.425
910.408	115.400
910.537	127.525
910.665	123.062
910.793	118.162
910.921	123.713
911.049	118.662
911.177	115.750
911.305	119.537
911.433	113.588
911.562	113.650
911.690	115.437
911.818	127.812
911.946	128.988
912.074	119.025
912.202	123.050
912.330	117.088
912.458	118.162
912.587	123.750
912.715	120.763
912.843	119.687
912.971	124.162
913.099	123.650
913.227	123.338
913.355	121.513
913.483	120.388
913.612	117.037
913.740	133.088
913.868	122.000
