sample3_PP_at_750.00nm_cut_at_1008.00Y_01.dat
15.05.2023
10:58:13
cut middle at Y: 1008.00
top cursor: 1048 down cursor: 968 mean of: 80 lines , 2560 datapoints
wavelength(nm)	intensity[arb. units]
585.996	1034.388
586.124	1025.662
586.252	1011.075
586.380	1023.425
586.508	1023.625
586.637	1024.263
586.765	1028.100
586.893	1040.875
587.021	1034.375
587.149	1051.875
587.277	1039.100
587.405	1048.325
587.533	1046.638
587.662	1061.937
587.790	1069.725
587.918	1059.600
588.046	1066.650
588.174	1057.737
588.302	1067.362
588.430	1073.338
588.558	1061.763
588.687	1070.513
588.815	1081.750
588.943	1075.437
589.071	1073.463
589.199	1088.625
589.327	1078.350
589.455	1075.575
589.583	1080.600
589.712	1090.825
589.840	1085.925
589.968	1087.612
590.096	1093.325
590.224	1099.638
590.352	1093.275
590.480	1093.050
590.608	1099.475
590.737	1078.062
590.865	1111.487
590.993	1111.862
591.121	1109.513
591.249	1107.725
591.377	1111.725
591.505	1111.450
591.633	1104.237
591.762	1128.088
591.890	1134.550
592.018	1134.287
592.146	1111.175
592.274	1140.575
592.402	1134.888
592.530	1139.963
592.658	1153.400
592.787	1137.850
592.915	1147.000
593.043	1153.900
593.171	1152.612
593.299	1173.487
593.427	1158.175
593.555	1161.600
593.683	1164.475
593.812	1163.175
593.940	1171.850
594.068	1171.525
594.196	1205.475
594.324	1175.525
594.452	1193.100
594.580	1218.800
594.708	1188.412
594.837	1218.300
594.965	1212.187
595.093	1233.412
595.221	1217.625
595.349	1228.437
595.477	1228.475
595.605	1236.638
595.733	1254.588
595.862	1252.412
595.990	1237.662
596.118	1253.050
596.246	1248.088
596.374	1273.000
596.502	1287.737
596.630	1271.400
596.758	1281.050
596.887	1282.987
597.015	1305.425
597.143	1284.138
597.271	1290.912
597.399	1301.912
597.527	1301.200
597.655	1296.088
597.783	1321.638
597.912	1303.725
598.040	1321.200
598.168	1318.787
598.296	1311.862
598.424	1318.650
598.552	1334.350
598.680	1324.162
598.808	1323.763
598.937	1333.650
599.065	1338.162
599.193	1342.162
599.321	1326.300
599.449	1350.050
599.577	1327.500
599.705	1336.213
599.833	1345.287
599.962	1343.862
600.090	1353.713
600.218	1345.437
600.346	1357.737
600.474	1366.062
600.602	1364.575
600.730	1360.750
600.858	1377.612
600.987	1379.275
601.115	1374.088
601.243	1379.912
601.371	1378.362
601.499	1386.388
601.627	1384.812
601.755	1410.475
601.883	1410.787
602.012	1414.037
602.140	1400.763
602.268	1427.975
602.396	1437.175
602.524	1431.937
602.652	1438.237
602.780	1443.963
602.908	1459.612
603.037	1460.300
603.165	1477.950
603.293	1481.187
603.421	1491.525
603.549	1477.013
603.677	1523.687
603.805	1499.463
603.933	1511.838
604.062	1509.412
604.190	1529.100
604.318	1522.763
604.446	1554.125
604.574	1550.650
604.702	1556.013
604.830	1562.050
604.958	1571.263
605.087	1602.350
605.215	1584.513
605.343	1603.300
605.471	1597.850
605.599	1604.975
605.727	1631.237
605.855	1654.588
605.983	1638.437
606.112	1648.812
606.240	1650.650
606.368	1666.437
606.496	1679.850
606.624	1664.225
606.752	1688.925
606.880	1685.912
607.008	1707.375
607.137	1720.513
607.265	1709.187
607.393	1730.838
607.521	1741.325
607.649	1724.463
607.777	1713.862
607.905	1720.062
608.033	1749.463
608.162	1746.463
608.290	1739.425
608.418	1774.338
608.546	1751.812
608.674	1788.838
608.802	1761.763
608.930	1781.475
609.058	1780.225
609.187	1781.888
609.315	1786.287
609.443	1790.287
609.571	1801.412
609.699	1800.662
609.827	1810.537
609.955	1805.912
610.083	1823.425
610.212	1818.963
610.340	1818.263
610.468	1826.350
610.596	1836.912
610.724	1856.325
610.852	1848.787
610.980	1848.700
611.108	1856.600
611.237	1857.713
611.365	1861.162
611.493	1869.487
611.621	1888.737
611.749	1904.638
611.877	1906.375
612.005	1904.075
612.133	1904.700
612.262	1906.700
612.390	1936.862
612.518	1928.275
612.646	1929.237
612.774	1956.675
612.902	1956.825
613.030	1964.400
613.158	1976.400
613.287	2017.525
613.415	2000.312
613.543	2013.838
613.671	1999.862
613.799	2027.612
613.927	2020.825
614.055	2023.225
614.183	2067.500
614.312	2047.838
614.440	2069.375
614.568	2068.863
614.696	2080.312
614.824	2086.525
614.952	2095.575
615.080	2116.650
615.208	2116.937
615.337	2132.600
615.465	2136.562
615.593	2164.162
615.721	2179.062
615.849	2185.875
615.977	2210.000
616.105	2194.238
616.233	2207.187
616.362	2232.975
616.490	2213.537
616.618	2234.037
616.746	2239.650
616.874	2288.113
617.002	2274.000
617.130	2306.175
617.258	2337.825
617.387	2293.000
617.515	2304.375
617.643	2323.713
617.771	2334.025
617.899	2340.875
618.027	2322.300
618.155	2400.662
618.283	2339.775
618.412	2352.562
618.540	2405.588
618.668	2363.425
618.796	2377.100
618.924	2467.662
619.052	2396.088
619.180	2397.250
619.308	2445.662
619.437	2443.738
619.565	2420.488
619.693	2424.050
619.821	2446.812
619.949	2433.475
620.077	2479.500
620.205	2481.838
620.333	2485.838
620.462	2534.463
620.590	2552.613
620.718	2496.687
620.846	2563.262
620.974	2596.725
621.102	2563.250
621.230	2536.812
621.358	2644.338
621.487	2552.838
621.615	2589.437
621.743	2605.425
621.871	2584.137
621.999	2667.537
622.127	2611.012
622.255	2616.000
622.383	2630.350
622.512	2638.363
622.640	2778.738
622.768	2634.650
622.896	2668.637
623.024	2679.637
623.152	2758.625
623.280	2720.012
623.408	2689.588
623.537	2720.400
623.665	2699.700
623.793	2765.200
623.921	2714.238
624.049	2718.300
624.177	2735.937
624.305	2796.500
624.433	2783.338
624.562	2821.113
624.690	2828.912
624.818	2852.975
624.946	2963.550
625.074	2867.838
625.202	2808.287
625.330	2835.650
625.458	2912.425
625.587	2876.437
625.715	2916.537
625.843	2997.525
625.971	2921.588
626.099	2920.213
626.227	2943.950
626.355	2921.562
626.483	2977.175
626.612	2927.412
626.740	2945.512
626.868	2997.950
626.996	2972.825
627.124	2961.012
627.252	2976.600
627.380	3028.162
627.508	3019.725
627.637	3018.550
627.765	3050.100
627.893	3059.700
628.021	3047.912
628.149	3083.187
628.277	3105.437
628.405	3184.213
628.533	3100.650
628.662	3135.650
628.790	3145.088
628.918	3133.375
629.046	3145.350
629.174	3154.125
629.302	3259.287
629.430	3193.900
629.558	3208.350
629.687	3228.162
629.815	3221.600
629.943	3274.562
630.071	3289.975
630.199	3292.400
630.327	3300.588
630.455	3295.687
630.583	3379.900
630.712	3346.325
630.840	3382.450
630.968	3407.787
631.096	3380.262
631.224	3397.200
631.352	3404.787
631.480	3442.637
631.608	3434.113
631.737	3539.350
631.865	3619.575
631.993	3465.600
632.121	3588.937
632.249	3559.050
632.377	3577.825
632.505	3586.838
632.633	3523.662
632.762	3611.075
632.890	3662.812
633.018	3581.975
633.146	3668.550
633.274	3662.325
633.402	3640.400
633.530	3653.687
633.658	3784.562
633.787	3662.463
633.915	3751.375
634.043	3678.137
634.171	3709.437
634.299	3728.200
634.427	3813.512
634.555	3774.537
634.683	3747.900
634.812	3757.687
634.940	3785.988
635.068	3746.225
635.196	3799.025
635.324	3785.437
635.452	3878.213
635.580	3823.150
635.708	3812.262
635.837	3884.675
635.965	3846.975
636.093	3843.250
636.221	3854.125
636.349	3926.475
636.477	3832.713
636.605	3999.312
636.733	3822.375
636.862	3863.963
636.990	3891.637
637.118	3946.075
637.246	3893.775
637.374	3885.625
637.502	3926.425
637.630	3899.175
637.758	3919.525
637.887	3907.150
638.015	3895.912
638.143	3938.525
638.271	3964.937
638.399	3915.550
638.527	3937.175
638.655	3931.838
638.783	4082.012
638.912	4006.725
639.040	3980.400
639.168	4017.637
639.296	3980.088
639.424	4123.300
639.552	4004.463
639.680	4017.825
639.808	4058.600
639.937	4019.100
640.065	4030.963
640.193	4124.325
640.321	4048.650
640.449	4137.125
640.577	4145.500
640.705	4108.725
640.833	4200.738
640.962	4094.525
641.090	4099.775
641.218	4122.750
641.346	4148.712
641.474	4181.375
641.602	4149.450
641.730	4167.462
641.858	4188.137
641.987	4226.525
642.115	4184.812
642.243	4261.225
642.371	4253.250
642.499	4252.637
642.627	4304.350
642.755	4342.600
642.883	4333.462
643.012	4310.988
643.140	4286.988
643.268	4314.850
643.396	4362.913
643.524	4495.625
643.652	4368.600
643.780	4373.900
643.908	4386.462
644.037	4518.150
644.165	4387.312
644.293	4424.863
644.421	4410.900
644.549	4499.012
644.677	4467.525
644.805	4525.538
644.933	4462.250
645.062	4515.525
645.190	4513.363
645.318	4594.512
645.446	4549.750
645.574	4567.925
645.702	4564.663
645.830	4739.538
645.958	4565.137
646.087	4756.875
646.215	4587.425
646.343	4768.875
646.471	4683.613
646.599	4673.150
646.727	4668.025
646.855	4653.975
646.983	4687.587
647.112	4656.538
647.240	4855.675
647.368	4695.775
647.496	4754.712
647.624	4686.437
647.752	4700.212
647.880	4728.562
648.008	4732.613
648.137	4726.187
648.265	4722.825
648.393	4729.850
648.521	4758.488
648.649	4755.150
648.777	4787.300
648.905	4745.863
649.033	4783.150
649.162	4791.550
649.290	4786.800
649.418	4844.512
649.546	4823.775
649.674	4873.712
649.802	4818.250
649.930	4964.613
650.058	4766.238
650.187	4821.900
650.315	4798.275
650.443	4896.725
650.571	4828.587
650.699	4824.850
650.827	4805.700
650.955	4833.212
651.083	4841.163
651.212	4885.500
651.340	4911.625
651.468	4859.887
651.596	4843.525
651.724	4844.950
651.852	4855.875
651.980	4832.975
652.108	4926.900
652.237	4885.825
652.365	4954.800
652.493	4825.250
652.621	4858.262
652.749	4928.825
652.877	4847.275
653.005	4887.975
653.133	4848.887
653.262	4914.538
653.390	4848.075
653.518	5002.613
653.646	4896.337
653.774	5087.425
653.902	4921.775
654.030	4858.288
654.158	4901.587
654.287	4900.437
654.415	4936.163
654.543	4894.000
654.671	4949.750
654.799	4928.500
654.927	4873.613
655.055	4889.425
655.183	4936.100
655.312	4920.850
655.440	4957.875
655.568	4902.150
655.696	5012.850
655.824	5041.375
655.952	4954.413
656.080	4918.575
656.208	5086.650
656.337	4941.850
656.465	4960.475
656.593	4989.150
656.721	4958.750
656.849	5015.975
656.977	4964.937
657.105	4971.500
657.233	4938.025
657.362	4960.712
657.490	4971.937
657.618	4971.337
657.746	4976.150
657.874	4947.875
658.002	4931.400
658.130	4985.512
658.258	4947.363
658.387	4972.512
658.515	4963.288
658.643	5016.538
658.771	4964.663
658.899	5000.925
659.027	5018.175
659.155	5000.275
659.283	5168.062
659.412	5003.325
659.540	5119.875
659.668	4979.462
659.796	5041.212
659.924	5093.788
660.052	5001.187
660.180	5051.050
660.308	5042.100
660.437	5048.462
660.565	5012.788
660.693	5024.363
660.821	5000.137
660.949	5030.363
661.077	5023.962
661.205	5034.488
661.333	5020.275
661.462	5140.137
661.590	5071.225
661.718	5238.462
661.846	5150.125
661.974	5211.050
662.102	5082.738
662.230	5114.550
662.358	5078.663
662.487	5081.613
662.615	5065.175
662.743	5061.300
662.871	5078.050
662.999	5073.575
663.127	5050.200
663.255	5187.275
663.383	5195.212
663.512	5066.812
663.640	5103.762
663.768	5077.113
663.896	5085.475
664.024	5161.750
664.152	5092.663
664.280	5146.075
664.408	5123.712
664.537	5178.300
664.665	5069.613
664.793	5059.812
664.921	5113.312
665.049	5112.725
665.177	5136.725
665.305	5122.625
665.433	5155.187
665.562	5122.800
665.690	5151.625
665.818	5335.663
665.946	5169.025
666.074	5147.400
666.202	5126.937
666.330	5202.950
666.458	5157.012
666.587	5096.538
666.715	5147.187
666.843	5101.913
666.971	5092.775
667.099	5169.475
667.227	5133.663
667.355	5175.700
667.483	5145.450
667.612	5170.725
667.740	5178.975
667.868	5247.425
667.996	5157.212
668.124	5147.012
668.252	5127.875
668.380	5117.413
668.508	5162.738
668.637	5173.450
668.765	5166.650
668.893	5222.200
669.021	5134.450
669.149	5200.887
669.277	5222.837
669.405	5145.212
669.533	5182.038
669.662	5399.413
669.790	5182.387
669.918	5231.587
670.046	5162.500
670.174	5252.637
670.302	5218.488
670.430	5196.312
670.558	5228.712
670.687	5162.413
670.815	5323.288
670.943	5087.137
671.071	5129.288
671.199	5168.437
671.327	5118.875
671.455	5155.437
671.583	5126.575
671.712	5287.150
671.840	5141.325
671.968	5096.038
672.096	5120.050
672.224	5091.850
672.352	5286.863
672.480	5094.437
672.608	5055.512
672.737	5082.788
672.865	5219.387
672.993	5088.613
673.121	5018.525
673.249	5035.937
673.377	5021.312
673.505	5054.700
673.633	5055.212
673.762	4998.550
673.890	5029.012
674.018	5244.488
674.146	5033.375
674.274	5046.887
674.402	5201.137
674.530	5024.437
674.658	5022.250
674.787	4970.625
674.915	4945.087
675.043	5043.550
675.171	5033.937
675.299	4970.725
675.427	5003.725
675.555	4954.637
675.683	4948.562
675.812	4941.738
675.940	4988.550
676.068	4942.788
676.196	4944.150
676.324	4927.475
676.452	4991.863
676.580	4911.450
676.708	4976.187
676.837	4983.200
676.965	4873.262
677.093	4896.850
677.221	4866.800
677.349	4919.937
677.477	4960.275
677.605	4886.212
677.733	4947.488
677.862	4838.937
677.990	4824.300
678.118	4794.100
678.246	4823.025
678.374	4803.312
678.502	4788.212
678.630	4750.950
678.758	4717.975
678.887	4769.125
679.015	4765.825
679.143	4748.012
679.271	4745.050
679.399	4770.425
679.527	4778.637
679.655	4716.425
679.783	4765.800
679.912	4747.275
680.040	4728.762
680.168	4726.288
680.296	4731.600
680.424	4675.062
680.552	4705.525
680.680	4780.187
680.808	4670.387
680.937	4660.375
681.065	4651.125
681.193	4641.363
681.321	4626.812
681.449	4627.275
681.577	4633.413
681.705	4642.212
681.833	4589.375
681.962	4608.250
682.090	4756.437
682.218	4574.750
682.346	4577.050
682.474	4631.512
682.602	4565.800
682.730	4583.200
682.858	4570.900
682.987	4627.775
683.115	4603.475
683.243	4565.200
683.371	4540.000
683.499	4522.762
683.627	4610.187
683.755	4599.475
683.883	4695.488
684.012	4542.387
684.140	4535.988
684.268	4523.375
684.396	4546.038
684.524	4556.825
684.652	4575.500
684.780	4586.875
684.908	4582.413
685.037	4493.725
685.165	4464.050
685.293	4507.525
685.421	4583.587
685.549	4479.163
685.677	4462.962
685.805	4622.625
685.933	4528.800
686.062	4449.988
686.190	4439.250
686.318	4512.187
686.446	4453.925
686.574	4447.875
686.702	4535.363
686.830	4425.163
686.958	4405.863
687.087	4423.475
687.215	4453.337
687.343	4403.275
687.471	4422.025
687.599	4412.375
687.727	4566.825
687.855	4425.337
687.983	4422.363
688.112	4494.425
688.240	4367.887
688.368	4348.825
688.496	4385.500
688.624	4440.663
688.752	4312.512
688.880	4349.025
689.008	4339.913
689.137	4343.212
689.265	4278.663
689.393	4297.613
689.521	4297.012
689.649	4277.275
689.777	4250.762
689.905	4250.775
690.033	4266.200
690.162	4248.000
690.290	4243.212
690.418	4238.288
690.546	4255.500
690.674	4325.462
690.802	4186.825
690.930	4216.212
691.058	4228.750
691.187	4202.000
691.315	4165.937
691.443	4228.300
691.571	4134.575
691.699	4167.837
691.827	4200.975
691.955	4106.488
692.083	4093.500
692.212	4237.363
692.340	4090.950
692.468	4074.262
692.596	4104.125
692.724	4172.150
692.852	4051.738
692.980	4090.050
693.108	4038.600
693.237	3990.350
693.365	3988.450
693.493	3982.675
693.621	3952.850
693.749	3958.838
693.877	3938.738
694.005	4034.325
694.133	3927.937
694.262	3944.875
694.390	3863.425
694.518	3880.625
694.646	3876.425
694.774	3851.350
694.902	3954.725
695.030	3901.463
695.158	3826.912
695.287	3788.338
695.415	3769.775
695.543	3791.325
695.671	3850.387
695.799	3762.238
695.927	3782.713
696.055	3755.950
696.183	3750.400
696.312	3706.150
696.440	3881.687
696.568	3751.450
696.696	3711.200
696.824	3624.500
696.952	3646.675
697.080	3639.762
697.208	3605.375
697.337	3674.637
697.465	3596.100
697.593	3562.625
697.721	3547.650
697.849	3562.463
697.977	3571.275
698.105	3571.300
698.233	3508.537
698.362	3496.900
698.490	3498.225
698.618	3485.412
698.746	3572.488
698.874	3461.537
699.002	3607.600
699.130	3440.075
699.258	3478.425
699.387	3384.363
699.515	3421.463
699.643	3403.400
699.771	3411.037
699.899	3357.312
700.027	3391.187
700.155	3332.287
700.283	3340.925
700.412	3338.650
700.540	3344.475
700.668	3357.088
700.796	3270.137
700.924	3264.113
701.052	3260.075
701.180	3390.338
701.308	3296.238
701.437	3192.425
701.565	3199.463
701.693	3173.025
701.821	3179.200
701.949	3167.037
702.077	3176.250
702.205	3121.875
702.333	3119.088
702.462	3099.812
702.590	3126.762
702.718	3099.050
702.846	3066.375
702.974	3062.450
703.102	3044.662
703.230	3132.037
703.358	3103.075
703.487	3004.550
703.615	3195.838
703.743	2988.425
703.871	2964.425
703.999	3008.100
704.127	3053.150
704.255	2896.425
704.383	3105.150
704.512	2909.213
704.640	2908.975
704.768	2845.713
704.896	2918.387
705.024	2849.000
705.152	2929.488
705.280	2828.550
705.408	2806.363
705.537	2801.025
705.665	2751.838
705.793	2758.738
705.921	2719.213
706.049	2755.500
706.177	2717.988
706.305	2708.800
706.433	2810.425
706.562	2696.250
706.690	2675.338
706.818	2647.613
706.946	2805.025
707.074	2650.488
707.202	2614.450
707.330	2650.687
707.458	2590.988
707.587	2589.088
707.715	2579.350
707.843	2621.662
707.971	2596.725
708.099	2628.812
708.227	2542.950
708.355	2541.200
708.483	2533.963
708.612	2523.775
708.740	2541.238
708.868	2540.312
708.996	2497.137
709.124	2487.213
709.252	2476.037
709.380	2479.675
709.508	2460.875
709.637	2453.800
709.765	2436.887
709.893	2418.613
710.021	2420.400
710.149	2396.512
710.277	2420.762
710.405	2409.125
710.533	2389.262
710.662	2365.625
710.790	2370.300
710.918	2353.875
711.046	2346.850
711.174	2324.387
711.302	2313.700
711.430	2293.287
711.558	2300.175
711.687	2273.950
711.815	2274.075
711.943	2273.750
712.071	2263.200
712.199	2252.625
712.327	2230.738
712.455	2219.912
712.583	2218.575
712.712	2233.387
712.840	2188.275
712.968	2173.262
713.096	2184.537
713.224	2180.137
713.352	2166.113
713.480	2131.613
713.608	2131.963
713.737	2120.425
713.865	2099.900
713.993	2081.863
714.121	2067.000
714.249	2069.925
714.377	2061.875
714.505	2076.437
714.633	2042.237
714.762	2023.175
714.890	2021.400
715.018	2003.075
715.146	1986.912
715.274	1978.375
715.402	1973.912
715.530	1977.412
715.658	1955.425
715.787	1961.237
715.915	1944.763
716.043	1916.425
716.171	1943.062
716.299	1957.300
716.427	1909.825
716.555	1897.050
716.683	1877.812
716.812	1877.175
716.940	1867.487
717.068	1834.513
717.196	1845.200
717.324	1840.250
717.452	1829.612
717.580	1812.575
717.708	1794.662
717.837	1809.912
717.965	1792.250
718.093	1773.675
718.221	1750.750
718.349	1760.412
718.477	1748.950
718.605	1727.037
718.733	1736.175
718.862	1713.687
718.990	1705.987
719.118	1698.588
719.246	1677.088
719.374	1672.862
719.502	1677.987
719.630	1673.300
719.758	1658.562
719.887	1636.937
720.015	1629.437
720.143	1628.338
720.271	1604.050
720.399	1601.875
720.527	1591.925
720.655	1583.612
720.783	1573.025
720.912	1572.800
721.040	1574.250
721.168	1539.263
721.296	1545.513
721.424	1538.713
721.552	1525.937
721.680	1511.900
721.808	1505.713
721.937	1497.075
722.065	1473.787
722.193	1461.625
722.321	1474.237
722.449	1471.325
722.577	1453.350
722.705	1437.700
722.833	1422.450
722.962	1432.888
723.090	1400.400
723.218	1398.550
723.346	1386.975
723.474	1391.437
723.602	1386.100
723.730	1368.912
723.858	1376.875
723.987	1366.175
724.115	1341.100
724.243	1335.250
724.371	1340.612
724.499	1337.450
724.627	1324.850
724.755	1313.987
724.883	1316.475
725.012	1288.763
725.140	1274.737
725.268	1269.263
725.396	1267.950
725.524	1248.138
725.652	1250.575
725.780	1240.050
725.908	1233.250
726.037	1229.312
726.165	1209.838
726.293	1203.775
726.421	1198.025
726.549	1204.787
726.677	1182.737
726.805	1200.963
726.933	1174.463
727.062	1161.088
727.190	1155.562
727.318	1156.162
727.446	1156.250
727.574	1139.925
727.702	1129.787
727.830	1121.088
727.958	1113.100
728.087	1117.088
728.215	1108.263
728.343	1097.963
728.471	1098.075
728.599	1067.763
728.727	1075.000
728.855	1079.213
728.983	1056.975
729.112	1051.050
729.240	1048.700
729.368	1034.388
729.496	1034.362
729.624	1041.075
729.752	1013.775
729.880	1021.212
730.008	1013.775
730.137	1003.712
730.265	1000.862
730.393	998.237
730.521	986.525
730.649	975.513
730.777	981.612
730.905	958.737
731.033	969.175
731.162	956.350
731.290	952.700
731.418	945.937
731.546	965.962
731.674	926.612
731.802	923.163
731.930	921.775
732.058	921.150
732.187	923.513
732.315	902.413
732.443	906.812
732.571	891.687
732.699	887.712
732.827	874.413
732.955	869.538
733.083	861.950
733.212	862.312
733.340	868.138
733.468	857.138
733.596	849.950
733.724	852.775
733.852	842.825
733.980	832.138
734.108	836.325
734.237	841.975
734.365	821.087
734.493	828.538
734.621	818.138
734.749	821.712
734.877	812.475
735.005	799.062
735.133	798.400
735.262	799.862
735.390	786.050
735.518	783.712
735.646	781.475
735.774	775.075
735.902	773.850
736.030	778.350
736.158	769.737
736.287	759.187
736.415	761.825
736.543	757.850
736.671	742.513
736.799	735.763
736.927	751.562
737.055	733.437
737.183	732.487
737.312	726.875
737.440	734.087
737.568	740.087
737.696	724.237
737.824	703.600
737.952	722.650
738.080	709.962
738.208	715.075
738.337	690.875
738.465	695.400
738.593	688.937
738.721	675.062
738.849	682.100
738.977	685.687
739.105	677.825
739.233	670.850
739.362	663.000
739.490	666.625
739.618	658.337
739.746	656.038
739.874	658.687
740.002	651.737
740.130	642.837
740.258	650.875
740.387	644.650
740.515	631.925
740.643	634.000
740.771	629.737
740.899	621.937
741.027	620.850
741.155	619.625
741.283	615.175
741.412	610.800
741.540	603.112
741.668	599.538
741.796	594.312
741.924	600.163
742.052	596.375
742.180	585.962
742.308	588.937
742.437	589.663
742.565	594.013
742.693	585.750
742.821	577.525
742.949	572.825
743.077	573.913
743.205	564.600
743.333	567.987
743.462	566.475
743.590	560.725
743.718	544.525
743.846	551.700
743.974	543.250
744.102	538.525
744.230	541.125
744.358	531.500
744.487	540.163
744.615	531.650
744.743	529.062
744.871	521.138
744.999	526.237
745.127	521.950
745.255	509.437
745.383	513.337
745.512	515.275
745.640	505.000
745.768	500.637
745.896	498.975
746.024	497.050
746.152	490.288
746.280	497.825
746.408	494.137
746.537	496.913
746.665	492.437
746.793	478.450
746.921	478.025
747.049	479.350
747.177	472.312
747.305	466.212
747.433	470.937
747.562	460.500
747.690	455.375
747.818	460.375
747.946	462.400
748.074	470.875
748.202	455.312
748.330	447.712
748.458	446.150
748.587	439.900
748.715	435.212
748.843	431.738
748.971	443.050
749.099	431.913
749.227	429.450
749.355	428.113
749.483	425.250
749.612	424.825
749.740	414.488
749.868	414.500
749.996	413.788
750.124	422.425
750.252	409.500
750.380	410.175
750.508	408.750
750.637	400.025
750.765	397.675
750.893	394.425
751.021	395.625
751.149	394.550
751.277	401.175
751.405	398.550
751.533	404.750
751.662	397.025
751.790	397.300
751.918	392.163
752.046	377.512
752.174	371.538
752.302	385.137
752.430	380.637
752.558	367.712
752.687	369.413
752.815	372.850
752.943	369.825
753.071	357.712
753.199	355.087
753.327	369.750
753.455	351.875
753.583	348.687
753.712	353.087
753.840	353.725
753.968	352.500
754.096	344.262
754.224	346.650
754.352	338.913
754.480	335.337
754.608	342.300
754.737	336.625
754.865	339.988
754.993	342.887
755.121	330.962
755.249	341.288
755.377	337.100
755.505	318.663
755.633	340.350
755.762	322.800
755.890	331.175
756.018	327.837
756.146	323.212
756.274	321.238
756.402	309.775
756.530	310.350
756.658	326.337
756.787	314.312
756.915	301.500
757.043	311.687
757.171	308.875
757.299	302.762
757.427	299.025
757.555	303.200
757.683	305.038
757.812	297.163
757.940	307.038
758.068	290.525
758.196	286.913
758.324	286.062
758.452	289.575
758.580	292.350
758.708	292.113
758.837	281.837
758.965	298.625
759.093	285.575
759.221	281.462
759.349	281.962
759.477	281.837
759.605	275.075
759.733	282.988
759.862	281.725
759.990	269.150
760.118	271.788
760.246	264.587
760.374	269.887
760.502	270.900
760.630	267.675
760.758	259.087
760.887	262.650
761.015	259.038
761.143	261.325
761.271	258.637
761.399	260.450
761.527	255.338
761.655	254.050
761.783	257.413
761.912	248.287
762.040	256.812
762.168	251.800
762.296	246.325
762.424	242.187
762.552	245.325
762.680	251.525
762.808	239.700
762.937	252.838
763.065	240.175
763.193	239.350
763.321	240.088
763.449	236.575
763.577	234.525
763.705	240.262
763.833	258.163
763.962	230.012
764.090	229.338
764.218	232.350
764.346	229.700
764.474	223.613
764.602	224.687
764.730	226.575
764.858	228.350
764.987	226.050
765.115	233.550
765.243	233.012
765.371	221.113
765.499	217.200
765.627	218.312
765.755	214.812
765.883	215.387
766.012	219.725
766.140	212.525
766.268	218.600
766.396	215.425
766.524	214.437
766.652	209.012
766.780	210.300
766.908	212.575
767.037	210.350
767.165	208.113
767.293	213.200
767.421	208.162
767.549	201.088
767.677	211.675
767.805	200.800
767.933	206.937
768.062	206.312
768.190	204.887
768.318	197.738
768.446	210.363
768.574	207.762
768.702	207.800
768.830	202.625
768.958	195.250
769.087	202.050
769.215	200.750
769.343	196.850
769.471	195.463
769.599	197.850
769.727	196.912
769.855	197.463
769.983	188.950
770.112	188.338
770.240	194.562
770.368	194.387
770.496	185.600
770.624	188.625
770.752	194.738
770.880	204.412
771.008	184.150
771.137	190.875
771.265	189.637
771.393	187.787
771.521	188.450
771.649	183.500
771.777	180.912
771.905	183.875
772.033	188.325
772.162	183.637
772.290	183.850
772.418	196.338
772.546	177.750
772.674	180.275
772.802	182.425
772.930	180.988
773.058	174.475
773.187	184.238
773.315	178.562
773.443	180.775
773.571	178.787
773.699	176.287
773.827	175.338
773.955	181.863
774.083	190.963
774.212	173.250
774.340	176.662
774.468	176.325
774.596	175.762
774.724	181.375
774.852	166.375
774.980	172.838
775.108	172.488
775.237	166.400
775.365	170.225
775.493	169.025
775.621	166.750
775.749	171.662
775.877	175.375
776.005	166.562
776.133	171.537
776.262	171.213
776.390	165.725
776.518	174.988
776.646	163.875
776.774	162.437
776.902	168.162
777.030	165.800
777.158	169.875
777.287	166.537
777.415	166.512
777.543	160.225
777.671	162.425
777.799	160.275
777.927	166.838
778.055	164.050
778.183	165.887
778.312	160.175
778.440	158.825
778.568	160.838
778.696	157.125
778.824	166.613
778.952	160.425
779.080	161.525
779.208	167.500
779.337	165.450
779.465	162.450
779.593	160.325
779.721	162.512
779.849	154.950
779.977	161.963
780.105	156.250
780.233	155.400
780.362	163.863
780.490	160.625
780.618	158.088
780.746	158.738
780.874	155.000
781.002	154.825
781.130	155.400
781.258	153.912
781.387	159.275
781.515	154.387
781.643	150.238
781.771	159.475
781.899	154.963
782.027	152.912
782.155	150.450
782.283	147.312
782.412	153.213
782.540	157.488
782.668	153.838
782.796	145.900
782.924	151.787
783.052	141.887
783.180	155.012
783.308	146.488
783.437	153.713
783.565	153.100
783.693	149.075
783.821	151.887
783.949	144.875
784.077	150.550
784.205	152.488
784.333	160.450
784.462	144.187
784.590	151.850
784.718	150.488
784.846	143.437
784.974	151.863
785.102	157.350
785.230	148.613
785.358	156.512
785.487	148.262
785.615	148.275
785.743	141.575
785.871	140.738
785.999	148.838
786.127	137.488
786.255	151.937
786.383	146.900
786.512	143.437
786.640	142.075
786.768	146.537
786.896	143.800
787.024	144.100
787.152	140.750
787.280	138.562
787.408	141.625
787.537	142.775
787.665	143.875
787.793	146.075
787.921	144.037
788.049	140.150
788.177	137.250
788.305	135.512
788.433	140.812
788.562	136.512
788.690	134.900
788.818	135.838
788.946	137.262
789.074	134.675
789.202	140.412
789.330	139.275
789.458	140.475
789.587	138.550
789.715	139.725
789.843	138.725
789.971	136.537
790.099	133.600
790.227	135.050
790.355	133.500
790.483	140.200
790.612	137.713
790.740	136.925
790.868	145.262
790.996	136.700
791.124	140.338
791.252	135.113
791.380	137.713
791.508	133.500
791.637	146.175
791.765	130.125
791.893	134.250
792.021	138.187
792.149	134.113
792.277	138.812
792.405	132.225
792.533	144.475
792.662	130.900
792.790	129.637
792.918	137.650
793.046	130.850
793.174	135.100
793.302	131.575
793.430	133.838
793.558	143.338
793.687	130.537
793.815	135.738
793.943	137.162
794.071	134.713
794.199	131.062
794.327	132.213
794.455	151.650
794.583	147.500
794.712	140.200
794.840	129.975
794.968	130.088
795.096	138.200
795.224	130.412
795.352	126.825
795.480	134.450
795.608	129.062
795.737	134.925
795.865	134.050
795.993	125.213
796.121	126.650
796.249	128.300
796.377	126.588
796.505	132.287
796.633	129.613
796.762	124.275
796.890	139.525
797.018	130.425
797.146	128.512
797.274	125.463
797.402	123.362
797.530	127.362
797.658	127.812
797.787	134.675
797.915	129.150
798.043	132.725
798.171	133.363
798.299	127.750
798.427	128.400
798.555	127.800
798.683	126.700
798.812	125.763
798.940	129.175
799.068	129.062
799.196	132.025
799.324	121.725
799.452	132.475
799.580	124.888
799.708	133.037
799.837	123.025
799.965	123.612
800.093	124.112
800.221	124.787
800.349	126.213
800.477	125.487
800.605	126.425
800.733	126.575
800.862	128.988
800.990	140.300
801.118	129.562
801.246	122.513
801.374	124.263
801.502	127.425
801.630	120.825
801.758	124.400
801.887	129.312
802.015	125.375
802.143	125.812
802.271	127.638
802.399	123.775
802.527	126.112
802.655	124.162
802.783	127.162
802.912	125.575
803.040	126.700
803.168	118.862
803.296	117.763
803.424	118.700
803.552	117.838
803.680	120.013
803.808	121.425
803.937	118.325
804.065	117.975
804.193	115.425
804.321	117.350
804.449	117.250
804.577	117.537
804.705	116.588
804.833	114.737
804.962	123.400
805.090	118.700
805.218	121.625
805.346	116.475
805.474	119.325
805.602	131.175
805.730	120.025
805.858	118.025
805.987	128.912
806.115	118.075
806.243	118.725
806.371	121.375
806.499	114.650
806.627	116.000
806.755	120.787
806.883	118.400
807.012	118.775
807.140	119.888
807.268	116.013
807.396	121.537
807.524	115.925
807.652	115.225
807.780	128.787
807.908	118.050
808.037	123.275
808.165	119.975
808.293	118.763
808.421	128.475
808.549	111.588
808.677	111.775
808.805	124.912
808.933	116.250
809.062	114.388
809.190	134.537
809.318	120.312
809.446	116.325
809.574	123.362
809.702	116.062
809.830	116.450
809.958	120.100
810.087	115.100
810.215	119.575
810.343	129.637
810.471	119.888
810.599	113.638
810.727	116.812
810.855	112.662
810.983	115.437
811.112	116.737
811.240	114.575
811.368	115.062
811.496	125.987
811.624	117.812
811.752	115.700
811.880	111.612
812.008	111.450
812.137	118.475
812.265	114.750
812.393	116.325
812.521	115.500
812.649	119.037
812.777	118.575
812.905	123.450
813.033	113.612
813.162	112.362
813.290	110.638
813.418	112.213
813.546	114.588
813.674	113.900
813.802	118.912
813.930	110.225
814.058	109.513
814.187	111.562
814.315	113.287
814.443	109.425
814.571	109.088
814.699	118.600
814.827	113.287
814.955	111.400
815.083	114.362
815.212	114.725
815.340	115.713
815.468	109.687
815.596	110.213
815.724	111.400
815.852	117.375
815.980	111.550
816.108	112.912
816.237	112.937
816.365	112.737
816.493	111.250
816.621	111.650
816.749	110.312
816.877	113.150
817.005	115.425
817.133	111.437
817.262	110.500
817.390	112.213
817.518	111.588
817.646	112.763
817.774	109.650
817.902	116.750
818.030	111.400
818.158	118.100
818.287	112.737
818.415	109.888
818.543	111.862
818.671	119.763
818.799	111.412
818.927	112.525
819.055	111.475
819.183	110.025
819.312	112.200
819.440	116.350
819.568	110.763
819.696	119.625
819.824	114.950
819.952	111.950
820.080	109.275
820.208	113.000
820.337	112.638
820.465	112.287
820.593	111.300
820.721	112.513
820.849	112.025
820.977	110.812
821.105	110.175
821.233	107.300
821.362	111.162
821.490	109.287
821.618	111.713
821.746	107.513
821.874	108.687
822.002	111.888
822.130	113.312
822.258	108.838
822.387	110.525
822.515	112.537
822.643	109.725
822.771	109.375
822.899	109.725
823.027	109.575
823.155	109.162
823.283	110.612
823.412	111.550
823.540	111.325
823.668	119.475
823.796	107.263
823.924	112.625
824.052	120.713
824.180	111.175
824.308	109.775
824.437	108.187
824.565	106.825
824.693	108.013
824.821	108.937
824.949	111.338
825.077	111.263
825.205	114.263
825.333	112.112
825.462	110.562
825.590	107.175
825.718	114.862
825.846	109.088
825.974	111.213
826.102	111.612
826.230	109.237
826.358	107.250
826.487	107.575
826.615	107.963
826.743	109.987
826.871	109.200
826.999	112.287
827.127	109.787
827.255	108.162
827.383	106.287
827.512	113.925
827.640	111.237
827.768	106.088
827.896	108.463
828.024	108.875
828.152	108.888
828.280	110.975
828.408	109.975
828.537	108.225
828.665	107.588
828.793	106.150
828.921	107.088
829.049	109.600
829.177	108.213
829.305	107.300
829.433	110.350
829.562	109.650
829.690	107.838
829.818	111.500
829.946	106.537
830.074	106.875
830.202	111.425
830.330	112.925
830.458	108.675
830.587	109.237
830.715	107.550
830.843	106.125
830.971	106.425
831.099	106.225
831.227	108.175
831.355	106.312
831.483	108.825
831.612	107.437
831.740	107.025
831.868	104.725
831.996	105.950
832.124	107.650
832.252	105.213
832.380	108.062
832.508	110.912
832.637	110.112
832.765	108.562
832.893	113.475
833.021	109.275
833.149	105.850
833.277	107.100
833.405	108.325
833.533	106.700
833.662	106.287
833.790	110.112
833.918	108.963
834.046	109.400
834.174	110.737
834.302	108.187
834.430	106.162
834.558	105.713
834.687	107.463
834.815	106.437
834.943	106.875
835.071	105.312
835.199	106.100
835.327	113.088
835.455	108.412
835.583	106.812
835.712	105.225
835.840	108.500
835.968	105.138
836.096	107.912
836.224	113.675
836.352	109.763
836.480	110.325
836.608	112.662
836.737	105.650
836.865	105.825
836.993	104.888
837.121	105.825
837.249	106.300
837.377	109.500
837.505	108.638
837.633	108.062
837.762	103.112
837.890	108.112
838.018	111.950
838.146	109.025
838.274	109.950
838.402	110.625
838.530	105.400
838.658	106.025
838.787	108.325
838.915	109.112
839.043	108.737
839.171	111.237
839.299	106.100
839.427	108.175
839.555	113.987
839.683	109.037
839.812	106.200
839.940	103.987
840.068	109.263
840.196	106.050
840.324	111.725
840.452	110.800
840.580	112.450
840.708	108.575
840.837	109.338
840.965	109.338
841.093	108.287
841.221	107.687
841.349	105.112
841.477	107.875
841.605	105.187
841.733	104.463
841.862	108.412
841.990	108.875
842.118	104.763
842.246	104.588
842.374	104.737
842.502	105.400
842.630	105.287
842.758	107.513
842.887	107.812
843.015	107.138
843.143	108.713
843.271	109.250
843.399	110.075
843.527	108.888
843.655	106.737
843.783	106.075
843.912	104.312
844.040	110.625
844.168	114.725
844.296	111.287
844.424	108.600
844.552	109.275
844.680	107.463
844.808	108.375
844.937	107.175
845.065	105.763
845.193	105.300
845.321	103.575
845.449	106.437
845.577	106.862
845.705	106.125
845.833	107.638
845.962	106.213
846.090	104.625
846.218	111.400
846.346	109.150
846.474	104.088
846.602	106.700
846.730	105.325
846.858	105.375
846.987	107.487
847.115	105.725
847.243	107.625
847.371	109.550
847.499	109.450
847.627	104.162
847.755	105.437
847.883	105.037
848.012	108.875
848.140	105.662
848.268	105.263
848.396	106.062
848.524	106.513
848.652	107.025
848.780	103.875
848.908	108.537
849.037	107.150
849.165	103.963
849.293	105.013
849.421	110.350
849.549	106.800
849.677	106.625
849.805	109.800
849.933	108.575
850.062	106.312
850.190	103.812
850.318	106.950
850.446	107.013
850.574	105.713
850.702	106.513
850.830	106.963
850.958	107.187
851.087	105.250
851.215	113.425
851.343	106.650
851.471	103.575
851.599	106.412
851.727	109.250
851.855	106.013
851.983	106.662
852.112	107.250
852.240	105.425
852.368	105.713
852.496	103.000
852.624	102.987
852.752	105.638
852.880	104.150
853.008	109.537
853.137	107.675
853.265	106.900
853.393	109.525
853.521	110.812
853.649	110.100
853.777	106.263
853.905	108.062
854.033	108.000
854.162	107.350
854.290	105.687
854.418	104.713
854.546	107.263
854.674	108.075
854.802	106.300
854.930	105.225
855.058	104.250
855.187	105.037
855.315	104.525
855.443	105.675
855.571	104.725
855.699	105.225
855.827	105.625
855.955	104.375
856.083	104.537
856.212	105.763
856.340	104.975
856.468	107.662
856.596	109.325
856.724	109.537
856.852	106.250
856.980	106.600
857.108	109.062
857.237	108.763
857.365	106.588
857.493	104.825
857.621	106.400
857.749	103.975
857.877	109.475
858.005	109.875
858.133	108.175
858.262	105.625
858.390	104.050
858.518	103.737
858.646	104.388
858.774	105.338
858.902	106.525
859.030	105.013
859.158	104.787
859.287	105.775
859.415	105.437
859.543	105.325
859.671	108.838
859.799	106.888
859.927	106.713
860.055	107.638
860.183	106.400
860.312	105.713
860.440	106.013
860.568	109.338
860.696	107.088
860.824	117.737
860.952	105.450
861.080	105.588
861.208	105.450
861.337	107.775
861.465	108.987
861.593	113.425
861.721	105.000
861.849	105.400
861.977	105.475
862.105	108.213
862.233	105.875
862.362	110.550
862.490	106.287
862.618	105.375
862.746	104.237
862.874	105.487
863.002	105.787
863.130	108.050
863.258	106.487
863.387	107.175
863.515	105.287
863.643	102.737
863.771	105.075
863.899	105.263
864.027	104.500
864.155	104.950
864.283	102.737
864.412	103.575
864.540	104.463
864.668	103.987
864.796	103.300
864.924	106.075
865.052	106.237
865.180	105.588
865.308	101.850
865.437	106.463
865.565	106.375
865.693	112.088
865.821	106.412
865.949	103.575
866.077	105.388
866.205	104.412
866.333	103.450
866.462	106.713
866.590	104.825
866.718	106.600
866.846	105.175
866.974	107.412
867.102	107.875
867.230	105.075
867.358	105.300
867.487	107.037
867.615	105.825
867.743	107.013
867.871	107.138
867.999	105.412
868.127	103.200
868.255	113.650
868.383	108.713
868.512	106.338
868.640	105.250
868.768	104.625
868.896	104.112
869.024	108.487
869.152	107.075
869.280	107.325
869.408	108.350
869.537	106.175
869.665	108.550
869.793	106.325
869.921	112.950
870.049	108.088
870.177	106.150
870.305	115.013
870.433	108.675
870.562	104.875
870.690	105.162
870.818	104.437
870.946	106.838
871.074	105.588
871.202	104.300
871.330	104.662
871.458	103.963
871.587	105.400
871.715	103.575
871.843	107.500
871.971	106.200
872.099	103.250
872.227	106.775
872.355	105.263
872.483	111.725
872.612	108.362
872.740	107.237
872.868	104.175
872.996	107.687
873.124	106.550
873.252	106.388
873.380	106.487
873.508	106.825
873.637	106.525
873.765	108.450
873.893	106.713
874.021	107.375
874.149	108.687
874.277	106.388
874.405	106.625
874.533	106.375
874.662	106.312
874.790	105.775
874.918	108.275
875.046	108.062
875.174	104.237
875.302	107.463
875.430	106.838
875.558	105.338
875.687	107.263
875.815	106.737
875.943	105.112
876.071	106.912
876.199	106.362
876.327	111.537
876.455	106.125
876.583	105.713
876.712	106.912
876.840	107.425
876.968	104.838
877.096	107.050
877.224	104.737
877.352	103.400
877.480	105.013
877.608	103.775
877.737	105.963
877.865	105.475
877.993	109.350
878.121	106.225
878.249	107.225
878.377	108.225
878.505	105.838
878.633	103.562
878.762	104.475
878.890	104.800
879.018	103.675
879.146	107.338
879.274	106.550
879.402	104.925
879.530	107.062
879.658	107.800
879.787	106.350
879.915	104.812
880.043	105.975
880.171	105.162
880.299	102.925
880.427	107.713
880.555	106.937
880.683	106.338
880.812	104.100
880.940	106.787
881.068	106.763
881.196	106.787
881.324	107.013
881.452	104.812
881.580	106.175
881.708	110.713
881.837	104.513
881.965	105.400
882.093	103.162
882.221	103.950
882.349	110.050
882.477	109.062
882.605	111.025
882.733	107.937
882.862	104.112
882.990	103.263
883.118	105.750
883.246	108.650
883.374	108.625
883.502	104.388
883.630	103.987
883.758	105.937
883.887	105.888
884.015	104.687
884.143	104.325
884.271	106.425
884.399	103.737
884.527	106.950
884.655	104.112
884.783	105.500
884.912	106.550
885.040	103.713
885.168	103.812
885.296	105.187
885.424	107.025
885.552	110.300
885.680	106.812
885.808	107.263
885.937	107.100
886.065	106.987
886.193	102.975
886.321	103.000
886.449	105.513
886.577	106.150
886.705	107.400
886.833	105.225
886.962	103.013
887.090	107.375
887.218	106.463
887.346	105.987
887.474	111.400
887.602	108.025
887.730	104.050
887.858	107.350
887.987	107.000
888.115	113.237
888.243	110.112
888.371	107.838
888.499	106.062
888.627	104.062
888.755	107.625
888.883	105.725
889.012	105.250
889.140	106.450
889.268	110.037
889.396	111.463
889.524	108.075
889.652	102.763
889.780	105.125
889.908	106.862
890.037	104.862
890.165	104.062
890.293	107.025
890.421	105.787
890.549	107.362
890.677	108.175
890.805	105.612
890.933	106.487
891.062	106.737
891.190	106.912
891.318	107.500
891.446	106.900
891.574	103.625
891.702	102.937
891.830	109.475
891.958	110.237
892.087	109.963
892.215	107.675
892.343	107.312
892.471	106.175
892.599	108.162
892.727	107.825
892.855	108.525
892.983	106.975
893.112	105.787
893.240	109.062
893.368	107.112
893.496	106.937
893.624	107.888
893.752	107.888
893.880	106.662
894.008	108.050
894.137	106.912
894.265	107.300
894.393	112.812
894.521	110.412
894.649	106.888
894.777	107.850
894.905	108.237
895.033	112.100
895.162	108.763
895.290	110.025
895.418	110.562
895.546	110.638
895.674	113.812
895.802	107.287
895.930	107.888
896.058	103.975
896.187	103.925
896.315	108.300
896.443	110.400
896.571	110.763
896.699	108.125
896.827	106.900
896.955	110.513
897.083	110.650
897.212	107.987
897.340	104.425
897.468	104.812
897.596	106.600
897.724	107.975
897.852	114.275
897.980	105.412
898.108	104.675
898.237	105.925
898.365	105.737
898.493	107.463
898.621	110.875
898.749	106.300
898.877	106.625
899.005	104.675
899.133	107.500
899.262	106.412
899.390	106.925
899.518	108.187
899.646	108.525
899.774	109.812
899.902	113.562
900.030	109.225
900.158	106.925
900.287	109.362
900.415	107.125
900.543	105.237
900.671	103.638
900.799	107.725
900.927	108.713
901.055	107.850
901.183	107.400
901.312	106.450
901.440	111.763
901.568	108.650
901.696	107.675
901.824	109.675
901.952	115.662
902.080	113.225
902.208	108.425
902.337	109.725
902.465	108.463
902.593	106.513
902.721	108.312
902.849	107.487
902.977	107.250
903.105	112.650
903.233	114.263
903.362	109.325
903.490	107.725
903.618	106.725
903.746	108.412
903.874	106.437
904.002	109.763
904.130	110.362
904.258	109.850
904.387	110.225
904.515	106.687
904.643	108.250
904.771	105.987
904.899	110.812
905.027	110.750
905.155	109.000
905.283	108.162
905.412	109.200
905.540	108.700
905.668	106.600
905.796	106.862
905.924	105.112
906.052	105.338
906.180	108.375
906.308	107.638
906.437	111.600
906.565	111.875
906.693	109.487
906.821	106.150
906.949	108.000
907.077	108.075
907.205	113.325
907.333	111.225
907.462	108.138
907.590	113.200
907.718	110.237
907.846	109.562
907.974	110.825
908.102	110.375
908.230	113.138
908.358	114.800
908.487	109.362
908.615	108.175
908.743	108.900
908.871	120.800
908.999	111.362
909.127	109.200
909.255	109.388
909.383	109.312
909.512	112.213
909.640	112.388
909.768	110.388
909.896	118.500
910.024	112.325
910.152	113.338
910.280	119.537
910.408	111.687
910.537	111.950
910.665	114.425
910.793	110.775
910.921	113.937
911.049	111.162
911.177	108.112
911.305	108.700
911.433	107.350
911.562	111.550
911.690	110.550
911.818	120.338
911.946	113.750
912.074	114.588
912.202	113.787
912.330	111.787
912.458	111.138
912.587	113.588
912.715	115.662
912.843	115.700
912.971	109.787
913.099	113.162
913.227	112.638
913.355	111.138
913.483	112.650
913.612	111.850
913.740	120.812
913.868	114.987
