sample12_PS_at_750.00nm_cut_at_1008.00Y_02.dat
15.05.2023
11:13:50
cut middle at Y: 1008.00
top cursor: 1048 down cursor: 968 mean of: 80 lines , 2560 datapoints
wavelength(nm)	intensity[arb. units]
585.996	1057.237
586.124	1029.763
586.252	1026.750
586.380	1031.537
586.508	1023.200
586.637	1034.013
586.765	1021.650
586.893	1027.112
587.021	1029.487
587.149	1034.375
587.277	1025.875
587.405	1031.213
587.533	1033.450
587.662	1038.925
587.790	1048.225
587.918	1046.388
588.046	1040.850
588.174	1036.100
588.302	1047.362
588.430	1041.200
588.558	1045.588
588.687	1046.425
588.815	1067.237
588.943	1044.412
589.071	1036.213
589.199	1050.100
589.327	1043.325
589.455	1040.125
589.583	1047.787
589.712	1050.800
589.840	1044.275
589.968	1038.713
590.096	1044.850
590.224	1052.487
590.352	1042.987
590.480	1045.350
590.608	1038.287
590.737	1034.875
590.865	1051.662
590.993	1044.037
591.121	1038.525
591.249	1047.088
591.377	1038.338
591.505	1037.500
591.633	1043.600
591.762	1048.525
591.890	1057.325
592.018	1047.325
592.146	1053.000
592.274	1046.662
592.402	1045.700
592.530	1049.450
592.658	1049.725
592.787	1057.062
592.915	1045.800
593.043	1047.562
593.171	1056.950
593.299	1067.437
593.427	1056.612
593.555	1061.237
593.683	1056.963
593.812	1065.300
593.940	1067.975
594.068	1065.763
594.196	1089.900
594.324	1063.388
594.452	1068.037
594.580	1081.287
594.708	1073.138
594.837	1080.362
594.965	1091.900
595.093	1088.713
595.221	1078.225
595.349	1088.737
595.477	1098.687
595.605	1086.250
595.733	1112.175
595.862	1096.987
595.990	1091.300
596.118	1106.263
596.246	1106.325
596.374	1121.237
596.502	1133.912
596.630	1108.513
596.758	1114.287
596.887	1115.075
597.015	1133.537
597.143	1100.812
597.271	1116.350
597.399	1124.125
597.527	1123.225
597.655	1124.300
597.783	1133.187
597.912	1113.375
598.040	1130.475
598.168	1127.338
598.296	1124.925
598.424	1117.912
598.552	1128.763
598.680	1128.263
598.808	1124.963
598.937	1138.213
599.065	1139.537
599.193	1124.225
599.321	1107.775
599.449	1125.088
599.577	1125.925
599.705	1122.838
599.833	1117.437
599.962	1111.500
600.090	1118.412
600.218	1120.125
600.346	1133.900
600.474	1135.575
600.602	1133.263
600.730	1132.150
600.858	1135.638
600.987	1115.662
601.115	1136.425
601.243	1128.013
601.371	1141.537
601.499	1130.975
601.627	1132.213
601.755	1136.925
601.883	1132.900
602.012	1148.888
602.140	1140.325
602.268	1148.013
602.396	1147.950
602.524	1158.650
602.652	1165.000
602.780	1153.062
602.908	1156.625
603.037	1160.687
603.165	1174.838
603.293	1174.550
603.421	1178.662
603.549	1175.500
603.677	1206.775
603.805	1188.812
603.933	1197.975
604.062	1197.800
604.190	1214.263
604.318	1196.437
604.446	1217.963
604.574	1222.963
604.702	1219.362
604.830	1219.537
604.958	1231.850
605.087	1248.287
605.215	1239.600
605.343	1254.112
605.471	1237.175
605.599	1253.675
605.727	1256.675
605.855	1262.575
605.983	1261.388
606.112	1274.138
606.240	1281.763
606.368	1281.362
606.496	1281.275
606.624	1280.450
606.752	1280.737
606.880	1275.200
607.008	1306.650
607.137	1311.125
607.265	1301.700
607.393	1311.925
607.521	1317.062
607.649	1304.612
607.777	1307.450
607.905	1301.800
608.033	1310.950
608.162	1310.463
608.290	1309.225
608.418	1318.138
608.546	1318.975
608.674	1335.475
608.802	1320.713
608.930	1329.550
609.058	1324.437
609.187	1320.287
609.315	1329.625
609.443	1316.463
609.571	1332.213
609.699	1336.237
609.827	1335.000
609.955	1331.412
610.083	1324.312
610.212	1339.263
610.340	1338.513
610.468	1322.600
610.596	1329.338
610.724	1331.400
610.852	1342.338
610.980	1337.400
611.108	1334.800
611.237	1340.875
611.365	1343.425
611.493	1348.000
611.621	1352.187
611.749	1364.638
611.877	1362.900
612.005	1370.250
612.133	1355.800
612.262	1354.400
612.390	1370.475
612.518	1377.625
612.646	1351.338
612.774	1375.300
612.902	1376.912
613.030	1376.625
613.158	1381.838
613.287	1421.912
613.415	1403.125
613.543	1396.937
613.671	1402.225
613.799	1417.525
613.927	1404.325
614.055	1412.162
614.183	1415.362
614.312	1415.062
614.440	1424.037
614.568	1437.700
614.696	1442.575
614.824	1431.463
614.952	1419.200
615.080	1442.912
615.208	1447.088
615.337	1448.000
615.465	1460.088
615.593	1483.237
615.721	1472.300
615.849	1475.375
615.977	1495.025
616.105	1480.500
616.233	1480.362
616.362	1502.500
616.490	1485.275
616.618	1500.525
616.746	1492.437
616.874	1510.662
617.002	1509.787
617.130	1529.175
617.258	1521.675
617.387	1510.950
617.515	1527.850
617.643	1534.838
617.771	1540.187
617.899	1555.112
618.027	1549.463
618.155	1549.187
618.283	1553.737
618.412	1559.412
618.540	1568.213
618.668	1572.388
618.796	1570.600
618.924	1589.350
619.052	1588.213
619.180	1578.088
619.308	1591.537
619.437	1583.362
619.565	1590.287
619.693	1585.213
619.821	1587.763
619.949	1589.225
620.077	1591.550
620.205	1602.900
620.333	1606.475
620.462	1628.687
620.590	1612.425
620.718	1612.838
620.846	1628.675
620.974	1662.237
621.102	1628.100
621.230	1623.825
621.358	1649.612
621.487	1639.600
621.615	1637.475
621.743	1654.050
621.871	1641.987
621.999	1630.662
622.127	1645.500
622.255	1650.250
622.383	1646.500
622.512	1658.713
622.640	1652.175
622.768	1656.588
622.896	1660.725
623.024	1642.775
623.152	1675.475
623.280	1652.062
623.408	1667.812
623.537	1684.437
623.665	1688.037
623.793	1677.937
623.921	1675.312
624.049	1682.475
624.177	1681.412
624.305	1677.125
624.433	1707.525
624.562	1703.625
624.690	1670.225
624.818	1692.150
624.946	1702.050
625.074	1704.237
625.202	1713.463
625.330	1728.950
625.458	1716.687
625.587	1711.287
625.715	1708.263
625.843	1715.862
625.971	1722.638
626.099	1746.500
626.227	1736.300
626.355	1718.937
626.483	1736.825
626.612	1721.325
626.740	1745.713
626.868	1751.975
626.996	1726.838
627.124	1732.350
627.252	1735.013
627.380	1757.513
627.508	1746.225
627.637	1754.713
627.765	1760.675
627.893	1796.900
628.021	1777.400
628.149	1799.175
628.277	1808.000
628.405	1806.725
628.533	1808.300
628.662	1793.500
628.790	1800.275
628.918	1808.213
629.046	1813.687
629.174	1796.675
629.302	1835.750
629.430	1836.775
629.558	1820.000
629.687	1836.062
629.815	1840.737
629.943	1832.575
630.071	1863.138
630.199	1856.737
630.327	1851.125
630.455	1858.362
630.583	1886.925
630.712	1897.588
630.840	1887.050
630.968	1927.075
631.096	1914.100
631.224	1905.375
631.352	1901.537
631.480	1910.775
631.608	1916.362
631.737	1935.250
631.865	1963.025
631.993	1933.362
632.121	1959.088
632.249	1948.575
632.377	1966.250
632.505	1963.100
632.633	1956.875
632.762	1989.213
632.890	2000.200
633.018	1991.900
633.146	1980.200
633.274	1987.300
633.402	1973.100
633.530	1986.037
633.658	2011.750
633.787	1993.575
633.915	2008.575
634.043	1996.862
634.171	2029.200
634.299	2029.638
634.427	2029.675
634.555	2038.000
634.683	2048.850
634.812	2019.513
634.940	2048.363
635.068	2020.287
635.196	2045.013
635.324	2063.412
635.452	2079.000
635.580	2050.787
635.708	2068.887
635.837	2068.412
635.965	2064.387
636.093	2052.700
636.221	2062.687
636.349	2069.963
636.477	2066.088
636.605	2109.000
636.733	2069.088
636.862	2062.900
636.990	2075.150
637.118	2084.687
637.246	2071.050
637.374	2066.187
637.502	2074.675
637.630	2082.562
637.758	2082.475
637.887	2066.512
638.015	2076.088
638.143	2107.137
638.271	2081.925
638.399	2078.287
638.527	2079.925
638.655	2080.650
638.783	2116.550
638.912	2081.787
639.040	2070.275
639.168	2082.075
639.296	2089.550
639.424	2114.200
639.552	2092.400
639.680	2122.463
639.808	2092.562
639.937	2090.988
640.065	2092.800
640.193	2131.738
640.321	2099.900
640.449	2137.575
640.577	2149.100
640.705	2105.825
640.833	2136.113
640.962	2134.762
641.090	2125.937
641.218	2129.162
641.346	2121.012
641.474	2124.162
641.602	2107.950
641.730	2146.338
641.858	2145.312
641.987	2156.600
642.115	2163.588
642.243	2166.850
642.371	2190.275
642.499	2158.812
642.627	2171.600
642.755	2177.750
642.883	2193.175
643.012	2188.537
643.140	2182.850
643.268	2182.363
643.396	2215.750
643.524	2228.537
643.652	2219.713
643.780	2204.125
643.908	2219.100
644.037	2229.625
644.165	2219.425
644.293	2236.762
644.421	2207.875
644.549	2245.988
644.677	2256.062
644.805	2263.050
644.933	2242.088
645.062	2247.500
645.190	2233.713
645.318	2238.625
645.446	2280.512
645.574	2291.887
645.702	2271.725
645.830	2330.588
645.958	2287.350
646.087	2333.963
646.215	2282.175
646.343	2343.762
646.471	2309.950
646.599	2330.550
646.727	2306.600
646.855	2297.850
646.983	2339.838
647.112	2311.437
647.240	2378.262
647.368	2318.500
647.496	2339.738
647.624	2318.925
647.752	2319.037
647.880	2332.687
648.008	2346.062
648.137	2327.000
648.265	2337.075
648.393	2326.137
648.521	2348.613
648.649	2356.437
648.777	2349.625
648.905	2365.887
649.033	2340.525
649.162	2351.963
649.290	2346.650
649.418	2350.762
649.546	2347.887
649.674	2377.200
649.802	2357.637
649.930	2404.287
650.058	2350.437
650.187	2373.100
650.315	2350.613
650.443	2368.437
650.571	2369.488
650.699	2373.850
650.827	2367.662
650.955	2351.113
651.083	2371.012
651.212	2392.800
651.340	2389.738
651.468	2378.262
651.596	2376.213
651.724	2365.437
651.852	2357.425
651.980	2352.887
652.108	2416.875
652.237	2374.088
652.365	2386.963
652.493	2366.012
652.621	2357.400
652.749	2409.300
652.877	2373.075
653.005	2376.488
653.133	2378.363
653.262	2401.812
653.390	2366.525
653.518	2413.175
653.646	2371.800
653.774	2440.850
653.902	2413.113
654.030	2377.613
654.158	2379.900
654.287	2386.975
654.415	2394.275
654.543	2382.287
654.671	2402.113
654.799	2383.662
654.927	2388.838
655.055	2370.662
655.183	2397.187
655.312	2383.387
655.440	2418.937
655.568	2389.887
655.696	2427.863
655.824	2440.412
655.952	2387.187
656.080	2388.700
656.208	2454.550
656.337	2386.887
656.465	2400.250
656.593	2421.900
656.721	2406.525
656.849	2445.300
656.977	2399.937
657.105	2400.100
657.233	2377.500
657.362	2391.912
657.490	2387.012
657.618	2409.900
657.746	2415.363
657.874	2388.637
658.002	2389.088
658.130	2407.713
658.258	2388.050
658.387	2411.088
658.515	2387.912
658.643	2403.925
658.771	2398.725
658.899	2417.950
659.027	2410.275
659.155	2399.037
659.283	2457.637
659.412	2394.162
659.540	2447.625
659.668	2399.238
659.796	2408.613
659.924	2452.838
660.052	2404.400
660.180	2416.450
660.308	2415.238
660.437	2398.475
660.565	2432.662
660.693	2418.450
660.821	2416.825
660.949	2432.762
661.077	2400.062
661.205	2437.088
661.333	2389.175
661.462	2478.787
661.590	2452.150
661.718	2476.338
661.846	2431.200
661.974	2483.588
662.102	2426.425
662.230	2440.675
662.358	2422.787
662.487	2438.562
662.615	2420.350
662.743	2415.100
662.871	2421.588
662.999	2412.963
663.127	2404.625
663.255	2443.650
663.383	2457.213
663.512	2442.025
663.640	2427.562
663.768	2419.425
663.896	2427.387
664.024	2424.900
664.152	2436.187
664.280	2452.625
664.408	2439.975
664.537	2475.425
664.665	2398.800
664.793	2396.988
664.921	2389.175
665.049	2409.937
665.177	2425.988
665.305	2433.400
665.433	2432.350
665.562	2408.687
665.690	2440.637
665.818	2494.650
665.946	2430.850
666.074	2437.662
666.202	2423.150
666.330	2443.700
666.458	2441.525
666.587	2414.925
666.715	2452.350
666.843	2423.963
666.971	2428.162
667.099	2434.950
667.227	2436.838
667.355	2434.400
667.483	2424.950
667.612	2443.375
667.740	2436.963
667.868	2463.238
667.996	2432.800
668.124	2426.450
668.252	2434.062
668.380	2408.075
668.508	2448.213
668.637	2430.262
668.765	2434.838
668.893	2455.238
669.021	2424.963
669.149	2439.875
669.277	2441.750
669.405	2424.875
669.533	2447.450
669.662	2529.400
669.790	2426.175
669.918	2453.650
670.046	2431.937
670.174	2467.250
670.302	2441.062
670.430	2430.488
670.558	2438.875
670.687	2428.738
670.815	2467.137
670.943	2403.838
671.071	2421.775
671.199	2429.213
671.327	2406.750
671.455	2411.088
671.583	2408.713
671.712	2461.162
671.840	2402.175
671.968	2386.537
672.096	2391.800
672.224	2389.062
672.352	2444.300
672.480	2396.725
672.608	2368.575
672.737	2391.450
672.865	2424.088
672.993	2378.012
673.121	2371.625
673.249	2368.350
673.377	2355.437
673.505	2373.025
673.633	2359.963
673.762	2338.725
673.890	2358.550
674.018	2425.275
674.146	2351.050
674.274	2358.463
674.402	2393.100
674.530	2361.812
674.658	2355.800
674.787	2330.637
674.915	2321.075
675.043	2357.175
675.171	2338.525
675.299	2329.787
675.427	2337.863
675.555	2327.062
675.683	2309.625
675.812	2308.488
675.940	2317.575
676.068	2337.988
676.196	2300.687
676.324	2318.350
676.452	2304.950
676.580	2288.925
676.708	2294.100
676.837	2344.838
676.965	2283.500
677.093	2296.637
677.221	2279.700
677.349	2271.812
677.477	2273.300
677.605	2261.975
677.733	2295.100
677.862	2257.725
677.990	2264.238
678.118	2257.000
678.246	2239.937
678.374	2219.637
678.502	2230.137
678.630	2209.963
678.758	2219.750
678.887	2223.162
679.015	2228.488
679.143	2218.750
679.271	2217.650
679.399	2223.137
679.527	2204.125
679.655	2204.588
679.783	2205.575
679.912	2206.437
680.040	2216.412
680.168	2219.825
680.296	2177.713
680.424	2211.825
680.552	2184.512
680.680	2203.725
680.808	2171.312
680.937	2172.437
681.065	2174.225
681.193	2168.275
681.321	2173.350
681.449	2173.600
681.577	2164.012
681.705	2147.525
681.833	2152.750
681.962	2138.075
682.090	2179.600
682.218	2150.637
682.346	2145.412
682.474	2153.975
682.602	2153.887
682.730	2144.262
682.858	2140.725
682.987	2135.562
683.115	2125.812
683.243	2116.750
683.371	2117.900
683.499	2102.012
683.627	2147.713
683.755	2127.825
683.883	2139.125
684.012	2114.363
684.140	2101.687
684.268	2101.250
684.396	2108.037
684.524	2114.225
684.652	2127.187
684.780	2121.200
684.908	2100.088
685.037	2091.025
685.165	2105.213
685.293	2098.750
685.421	2091.850
685.549	2080.437
685.677	2086.963
685.805	2084.463
685.933	2094.750
686.062	2072.525
686.190	2078.575
686.318	2100.488
686.446	2075.625
686.574	2063.875
686.702	2113.625
686.830	2081.637
686.958	2064.838
687.087	2067.000
687.215	2055.300
687.343	2048.950
687.471	2057.100
687.599	2043.037
687.727	2037.500
687.855	2069.725
687.983	2056.825
688.112	2045.362
688.240	2008.100
688.368	2051.925
688.496	2032.612
688.624	2039.375
688.752	2038.888
688.880	2027.450
689.008	2011.463
689.137	2011.300
689.265	2017.388
689.393	2004.187
689.521	2004.187
689.649	2009.700
689.777	2009.187
689.905	2019.838
690.033	2006.187
690.162	1986.338
690.290	1984.013
690.418	1991.888
690.546	1999.300
690.674	1999.700
690.802	1960.275
690.930	1961.737
691.058	1957.088
691.187	1948.100
691.315	1978.963
691.443	1956.263
691.571	1958.900
691.699	1937.550
691.827	1956.088
691.955	1944.275
692.083	1921.787
692.212	1924.850
692.340	1943.437
692.468	1929.850
692.596	1927.437
692.724	1918.463
692.852	1910.875
692.980	1893.937
693.108	1888.325
693.237	1886.900
693.365	1889.537
693.493	1873.412
693.621	1859.650
693.749	1882.513
693.877	1853.750
694.005	1855.300
694.133	1861.475
694.262	1849.850
694.390	1844.638
694.518	1805.225
694.646	1829.687
694.774	1832.100
694.902	1816.700
695.030	1853.800
695.158	1802.900
695.287	1819.187
695.415	1800.975
695.543	1805.725
695.671	1781.513
695.799	1790.775
695.927	1779.912
696.055	1787.050
696.183	1791.200
696.312	1774.338
696.440	1767.912
696.568	1764.450
696.696	1746.950
696.824	1755.588
696.952	1729.463
697.080	1730.200
697.208	1748.575
697.337	1708.713
697.465	1724.775
697.593	1712.025
697.721	1707.912
697.849	1717.825
697.977	1701.275
698.105	1718.362
698.233	1707.675
698.362	1686.562
698.490	1685.662
698.618	1688.950
698.746	1675.987
698.874	1674.263
699.002	1684.487
699.130	1662.213
699.258	1679.475
699.387	1641.088
699.515	1642.562
699.643	1665.875
699.771	1655.287
699.899	1645.388
700.027	1645.388
700.155	1642.650
700.283	1629.013
700.412	1617.575
700.540	1609.612
700.668	1600.225
700.796	1599.775
700.924	1591.513
701.052	1594.662
701.180	1605.888
701.308	1585.625
701.437	1566.700
701.565	1581.125
701.693	1561.787
701.821	1596.100
701.949	1581.550
702.077	1556.612
702.205	1560.325
702.333	1545.275
702.462	1543.412
702.590	1540.750
702.718	1547.187
702.846	1532.763
702.974	1533.912
703.102	1527.662
703.230	1528.537
703.358	1504.400
703.487	1507.463
703.615	1506.937
703.743	1498.075
703.871	1492.588
703.999	1473.112
704.127	1481.487
704.255	1474.175
704.383	1469.588
704.512	1459.425
704.640	1472.500
704.768	1452.350
704.896	1453.213
705.024	1450.187
705.152	1447.437
705.280	1430.537
705.408	1426.925
705.537	1438.500
705.665	1425.125
705.793	1424.162
705.921	1415.687
706.049	1424.338
706.177	1408.987
706.305	1406.050
706.433	1391.213
706.562	1397.213
706.690	1391.537
706.818	1376.263
706.946	1374.075
707.074	1378.037
707.202	1371.963
707.330	1355.037
707.458	1368.713
707.587	1346.300
707.715	1352.225
707.843	1339.925
707.971	1361.325
708.099	1347.463
708.227	1318.600
708.355	1321.225
708.483	1325.925
708.612	1330.237
708.740	1310.838
708.868	1309.950
708.996	1320.050
709.124	1312.500
709.252	1287.812
709.380	1284.787
709.508	1278.250
709.637	1292.800
709.765	1289.487
709.893	1276.263
710.021	1268.838
710.149	1271.725
710.277	1282.362
710.405	1266.263
710.533	1254.150
710.662	1258.400
710.790	1255.075
710.918	1244.888
711.046	1253.588
711.174	1239.287
711.302	1230.912
711.430	1231.700
711.558	1226.263
711.687	1214.400
711.815	1216.862
711.943	1230.925
712.071	1201.700
712.199	1212.175
712.327	1204.975
712.455	1188.838
712.583	1193.437
712.712	1201.987
712.840	1192.662
712.968	1187.400
713.096	1192.638
713.224	1183.950
713.352	1176.737
713.480	1160.650
713.608	1164.075
713.737	1155.775
713.865	1143.450
713.993	1142.888
714.121	1143.737
714.249	1148.025
714.377	1147.338
714.505	1137.325
714.633	1144.062
714.762	1122.850
714.890	1127.375
715.018	1122.388
715.146	1113.437
715.274	1110.937
715.402	1104.162
715.530	1112.912
715.658	1097.588
715.787	1108.487
715.915	1090.862
716.043	1092.513
716.171	1103.225
716.299	1109.325
716.427	1085.250
716.555	1081.125
716.683	1078.575
716.812	1070.838
716.940	1074.900
717.068	1039.937
717.196	1062.162
717.324	1056.412
717.452	1050.150
717.580	1039.388
717.708	1054.975
717.837	1064.775
717.965	1041.025
718.093	1034.300
718.221	1026.388
718.349	1034.588
718.477	1023.900
718.605	1008.150
718.733	1018.112
718.862	1004.625
718.990	1009.462
719.118	1013.275
719.246	993.138
719.374	1008.212
719.502	1005.837
719.630	999.875
719.758	995.987
719.887	984.712
720.015	988.625
720.143	978.862
720.271	986.925
720.399	968.150
720.527	979.225
720.655	967.163
720.783	956.888
720.912	961.300
721.040	968.525
721.168	954.187
721.296	955.413
721.424	945.388
721.552	947.325
721.680	940.075
721.808	948.112
721.937	938.962
722.065	925.562
722.193	916.050
722.321	926.775
722.449	906.612
722.577	915.950
722.705	908.125
722.833	902.475
722.962	913.237
723.090	890.237
723.218	890.100
723.346	895.538
723.474	899.487
723.602	883.862
723.730	874.900
723.858	886.000
723.987	879.337
724.115	868.737
724.243	871.212
724.371	867.925
724.499	870.975
724.627	863.350
724.755	863.975
724.883	866.163
725.012	850.225
725.140	853.687
725.268	844.138
725.396	843.737
725.524	837.475
725.652	838.375
725.780	830.288
725.908	824.475
726.037	828.612
726.165	824.475
726.293	804.550
726.421	807.300
726.549	817.812
726.677	801.663
726.805	800.638
726.933	800.200
727.062	788.337
727.190	784.825
727.318	783.150
727.446	791.000
727.574	784.237
727.702	787.763
727.830	761.288
727.958	785.413
728.087	764.187
728.215	769.275
728.343	766.062
728.471	761.263
728.599	758.812
728.727	758.800
728.855	756.200
728.983	748.062
729.112	741.388
729.240	749.663
729.368	733.500
729.496	734.650
729.624	738.375
729.752	730.612
729.880	727.538
730.008	733.500
730.137	726.025
730.265	729.862
730.393	723.725
730.521	707.187
730.649	712.612
730.777	713.513
730.905	698.600
731.033	700.200
731.162	704.125
731.290	701.163
731.418	694.100
731.546	714.687
731.674	683.400
731.802	690.712
731.930	692.850
732.058	687.413
732.187	688.212
732.315	675.000
732.443	678.575
732.571	672.862
732.699	671.462
732.827	669.250
732.955	664.850
733.083	665.288
733.212	655.100
733.340	664.388
733.468	656.437
733.596	651.325
733.724	648.862
733.852	645.187
733.980	648.312
734.108	644.100
734.237	650.437
734.365	638.337
734.493	645.875
734.621	632.187
734.749	645.325
734.877	629.425
735.005	620.650
735.133	629.237
735.262	630.900
735.390	629.312
735.518	621.962
735.646	621.737
735.774	614.638
735.902	611.587
736.030	614.112
736.158	622.112
736.287	603.687
736.415	616.850
736.543	605.250
736.671	607.663
736.799	595.775
736.927	609.562
737.055	593.100
737.183	592.038
737.312	597.038
737.440	606.312
737.568	610.075
737.696	587.700
737.824	592.862
737.952	591.888
738.080	586.650
738.208	589.650
738.337	584.150
738.465	585.962
738.593	577.125
738.721	562.075
738.849	567.462
738.977	568.587
739.105	568.513
739.233	567.675
739.362	563.013
739.490	556.575
739.618	548.962
739.746	558.350
739.874	561.550
740.002	549.350
740.130	546.312
740.258	552.737
740.387	545.150
740.515	545.712
740.643	546.788
740.771	543.087
740.899	537.413
741.027	534.525
741.155	540.950
741.283	528.775
741.412	531.138
741.540	527.150
741.668	529.187
741.796	524.650
741.924	527.825
742.052	524.700
742.180	515.763
742.308	523.437
742.437	516.163
742.565	524.987
742.693	517.275
742.821	505.550
742.949	514.350
743.077	512.737
743.205	507.450
743.333	510.250
743.462	503.100
743.590	502.812
743.718	493.875
743.846	498.962
743.974	489.900
744.102	489.337
744.230	491.137
744.358	480.913
744.487	499.400
744.615	481.038
744.743	488.175
744.871	472.325
744.999	485.775
745.127	480.600
745.255	475.062
745.383	472.837
745.512	471.663
745.640	462.962
745.768	470.087
745.896	469.100
746.024	464.750
746.152	456.637
746.280	467.863
746.408	470.137
746.537	464.250
746.665	467.262
746.793	454.863
746.921	454.925
747.049	455.087
747.177	458.262
747.305	445.475
747.433	452.575
747.562	441.675
747.690	438.800
747.818	438.550
747.946	437.913
748.074	450.113
748.202	444.025
748.330	428.288
748.458	432.738
748.587	431.113
748.715	421.500
748.843	428.350
748.971	429.850
749.099	421.425
749.227	428.500
749.355	413.150
749.483	418.550
749.612	415.087
749.740	415.663
749.868	416.038
749.996	415.475
750.124	411.375
750.252	409.512
750.380	409.312
750.508	406.437
750.637	399.325
750.765	404.050
750.893	397.312
751.021	397.387
751.149	399.988
751.277	410.637
751.405	404.375
751.533	409.413
751.662	401.750
751.790	409.312
751.918	404.375
752.046	392.212
752.174	386.700
752.302	396.575
752.430	394.075
752.558	384.512
752.687	387.312
752.815	394.212
752.943	381.812
753.071	372.400
753.199	379.462
753.327	382.587
753.455	375.038
753.583	364.725
753.712	376.000
753.840	367.075
753.968	369.587
754.096	364.163
754.224	365.687
754.352	353.762
754.480	358.587
754.608	360.225
754.737	361.962
754.865	360.887
754.993	360.212
755.121	355.212
755.249	360.863
755.377	351.850
755.505	351.325
755.633	366.163
755.762	349.725
755.890	360.837
756.018	357.100
756.146	345.312
756.274	349.850
756.402	340.137
756.530	343.437
756.658	351.262
756.787	339.500
756.915	333.988
757.043	339.800
757.171	337.488
757.299	333.500
757.427	335.700
757.555	334.675
757.683	341.988
757.812	330.788
757.940	336.262
758.068	330.337
758.196	320.812
758.324	322.900
758.452	329.100
758.580	323.550
758.708	327.000
758.837	322.738
758.965	325.500
759.093	316.175
759.221	317.788
759.349	311.625
759.477	309.600
759.605	310.950
759.733	314.613
759.862	312.288
759.990	308.288
760.118	312.500
760.246	305.812
760.374	302.863
760.502	306.050
760.630	301.200
760.758	300.825
760.887	296.575
761.015	301.988
761.143	302.850
761.271	297.363
761.399	292.700
761.527	291.413
761.655	293.575
761.783	292.637
761.912	287.137
762.040	290.863
762.168	292.462
762.296	284.100
762.424	281.762
762.552	281.712
762.680	289.450
762.808	285.900
762.937	283.413
763.065	284.488
763.193	284.700
763.321	277.525
763.449	275.125
763.577	278.587
763.705	280.288
763.833	302.488
763.962	275.913
764.090	267.275
764.218	275.837
764.346	272.675
764.474	264.363
764.602	268.075
764.730	270.837
764.858	272.913
764.987	269.525
765.115	274.212
765.243	274.975
765.371	260.325
765.499	253.700
765.627	258.363
765.755	259.062
765.883	255.762
766.012	258.413
766.140	253.875
766.268	253.525
766.396	252.150
766.524	253.012
766.652	247.912
766.780	249.963
766.908	259.750
767.037	255.488
767.165	247.075
767.293	258.100
767.421	247.162
767.549	246.738
767.677	252.025
767.805	242.825
767.933	248.600
768.062	244.275
768.190	247.350
768.318	240.125
768.446	253.412
768.574	248.375
768.702	243.125
768.830	239.512
768.958	234.887
769.087	240.375
769.215	236.075
769.343	236.387
769.471	235.725
769.599	239.725
769.727	229.600
769.855	235.700
769.983	231.062
770.112	230.463
770.240	231.088
770.368	234.650
770.496	225.675
770.624	227.350
770.752	231.213
770.880	238.488
771.008	227.575
771.137	225.213
771.265	225.437
771.393	221.338
771.521	225.550
771.649	219.037
771.777	223.925
771.905	223.113
772.033	225.275
772.162	221.075
772.290	225.912
772.418	229.338
772.546	216.350
772.674	220.187
772.802	217.150
772.930	221.412
773.058	213.963
773.187	220.713
773.315	214.037
773.443	217.012
773.571	212.875
773.699	212.050
773.827	208.588
773.955	218.637
774.083	226.275
774.212	207.738
774.340	214.075
774.468	213.488
774.596	210.088
774.724	217.350
774.852	201.875
774.980	207.812
775.108	211.662
775.237	202.375
775.365	206.262
775.493	201.687
775.621	206.437
775.749	208.950
775.877	212.738
776.005	201.950
776.133	206.162
776.262	207.100
776.390	193.975
776.518	209.463
776.646	194.350
776.774	199.287
776.902	204.575
777.030	200.125
777.158	198.863
777.287	201.963
777.415	197.300
777.543	194.312
777.671	196.213
777.799	192.912
777.927	194.875
778.055	197.287
778.183	199.850
778.312	191.725
778.440	190.287
778.568	197.062
778.696	191.875
778.824	194.687
778.952	189.363
779.080	190.812
779.208	195.838
779.337	192.537
779.465	190.662
779.593	192.050
779.721	192.662
779.849	187.825
779.977	188.175
780.105	181.238
780.233	184.838
780.362	193.775
780.490	188.650
780.618	182.838
780.746	183.262
780.874	180.537
781.002	179.812
781.130	181.375
781.258	184.062
781.387	182.250
781.515	181.088
781.643	181.387
781.771	185.713
781.899	182.912
782.027	182.713
782.155	181.012
782.283	175.637
782.412	180.637
782.540	181.200
782.668	180.875
782.796	173.262
782.924	175.787
783.052	171.950
783.180	180.363
783.308	173.187
783.437	173.912
783.565	182.113
783.693	177.925
783.821	177.150
783.949	170.488
784.077	180.713
784.205	175.925
784.333	181.713
784.462	166.325
784.590	173.262
784.718	173.963
784.846	168.687
784.974	176.650
785.102	181.338
785.230	171.150
785.358	179.225
785.487	172.000
785.615	170.463
785.743	164.762
785.871	166.137
785.999	168.937
786.127	160.250
786.255	177.338
786.383	172.312
786.512	163.613
786.640	166.350
786.768	171.687
786.896	164.625
787.024	165.800
787.152	163.488
787.280	160.025
787.408	158.613
787.537	160.425
787.665	163.113
787.793	162.525
787.921	167.262
788.049	160.675
788.177	157.400
788.305	157.175
788.433	162.400
788.562	158.713
788.690	157.787
788.818	153.838
788.946	159.488
789.074	156.562
789.202	160.375
789.330	159.137
789.458	160.175
789.587	158.850
789.715	159.838
789.843	159.050
789.971	156.325
790.099	154.262
790.227	154.537
790.355	152.838
790.483	158.925
790.612	157.875
790.740	155.713
790.868	160.762
790.996	155.537
791.124	155.000
791.252	152.937
791.380	154.600
791.508	151.025
791.637	162.287
791.765	145.262
791.893	148.363
792.021	154.912
792.149	153.750
792.277	155.550
792.405	150.025
792.533	157.887
792.662	147.988
792.790	149.387
792.918	155.512
793.046	146.463
793.174	148.088
793.302	151.200
793.430	146.637
793.558	159.150
793.687	146.150
793.815	148.950
793.943	148.088
794.071	148.525
794.199	142.550
794.327	147.812
794.455	167.738
794.583	160.700
794.712	154.925
794.840	149.475
794.968	148.713
795.096	151.525
795.224	146.738
795.352	140.412
795.480	148.650
795.608	147.637
795.737	149.225
795.865	147.887
795.993	137.012
796.121	144.887
796.249	147.975
796.377	144.363
796.505	151.187
796.633	143.062
796.762	139.350
796.890	151.762
797.018	142.900
797.146	142.713
797.274	136.162
797.402	139.375
797.530	140.650
797.658	143.338
797.787	147.613
797.915	140.925
798.043	146.200
798.171	147.463
798.299	139.425
798.427	142.412
798.555	137.475
798.683	136.012
798.812	141.262
798.940	142.750
799.068	140.037
799.196	145.200
799.324	137.350
799.452	142.800
799.580	136.125
799.708	144.750
799.837	134.687
799.965	135.000
800.093	137.800
800.221	139.075
800.349	141.150
800.477	141.562
800.605	139.963
800.733	139.887
800.862	141.800
800.990	152.963
801.118	139.537
801.246	133.187
801.374	135.637
801.502	139.150
801.630	129.925
801.758	134.287
801.887	139.025
802.015	135.287
802.143	132.363
802.271	138.012
802.399	137.825
802.527	136.700
802.655	136.050
802.783	140.613
802.912	138.312
803.040	136.675
803.168	131.037
803.296	129.200
803.424	133.537
803.552	135.075
803.680	133.325
803.808	131.925
803.937	135.250
804.065	132.950
804.193	131.287
804.321	138.387
804.449	129.662
804.577	130.925
804.705	133.238
804.833	131.088
804.962	133.900
805.090	126.963
805.218	135.912
805.346	130.825
805.474	131.662
805.602	144.187
805.730	128.300
805.858	127.325
805.987	138.125
806.115	134.037
806.243	132.937
806.371	128.775
806.499	126.362
806.627	124.687
806.755	134.425
806.883	127.662
807.012	128.738
807.140	130.287
807.268	127.400
807.396	133.088
807.524	121.888
807.652	124.013
807.780	136.662
807.908	124.787
808.037	132.588
808.165	128.012
808.293	127.650
808.421	137.575
808.549	124.062
808.677	121.362
808.805	137.400
808.933	128.400
809.062	126.500
809.190	146.450
809.318	128.875
809.446	123.425
809.574	134.113
809.702	123.475
809.830	123.875
809.958	128.750
810.087	126.250
810.215	131.625
810.343	137.937
810.471	125.612
810.599	122.550
810.727	124.200
810.855	120.600
810.983	126.562
811.112	128.900
811.240	122.250
811.368	124.025
811.496	133.637
811.624	127.375
811.752	121.437
811.880	123.875
812.008	121.263
812.137	127.537
812.265	123.662
812.393	124.362
812.521	125.825
812.649	125.287
812.777	120.975
812.905	129.613
813.033	118.825
813.162	118.300
813.290	121.037
813.418	121.763
813.546	120.638
813.674	121.425
813.802	123.825
813.930	120.412
814.058	117.900
814.187	122.725
814.315	120.687
814.443	122.500
814.571	119.487
814.699	127.112
814.827	121.975
814.955	125.900
815.083	125.525
815.212	122.475
815.340	123.388
815.468	121.575
815.596	120.088
815.724	123.700
815.852	126.400
815.980	118.250
816.108	119.963
816.237	118.312
816.365	118.937
816.493	118.687
816.621	114.575
816.749	115.975
816.877	120.187
817.005	121.450
817.133	118.125
817.262	116.013
817.390	125.537
817.518	115.888
817.646	120.838
817.774	116.537
817.902	120.612
818.030	115.775
818.158	121.388
818.287	124.400
818.415	115.937
818.543	116.662
818.671	125.700
818.799	114.862
818.927	117.150
819.055	115.862
819.183	115.925
819.312	114.513
819.440	117.338
819.568	117.025
819.696	124.150
819.824	119.838
819.952	118.737
820.080	114.162
820.208	116.362
820.337	118.075
820.465	122.513
820.593	117.775
820.721	115.912
820.849	113.675
820.977	114.662
821.105	114.612
821.233	112.025
821.362	114.675
821.490	115.900
821.618	114.200
821.746	112.275
821.874	115.025
822.002	119.638
822.130	120.213
822.258	112.975
822.387	115.425
822.515	116.250
822.643	114.975
822.771	113.487
822.899	116.287
823.027	113.263
823.155	110.200
823.283	114.150
823.412	114.362
823.540	113.125
823.668	133.375
823.796	111.950
823.924	118.150
824.052	120.287
824.180	116.625
824.308	113.937
824.437	111.950
824.565	111.237
824.693	113.713
824.821	115.263
824.949	118.575
825.077	117.812
825.205	121.213
825.333	115.850
825.462	115.263
825.590	111.013
825.718	118.838
825.846	111.800
825.974	113.050
826.102	117.112
826.230	115.888
826.358	119.950
826.487	110.662
826.615	112.550
826.743	112.588
826.871	117.687
826.999	111.412
827.127	114.662
827.255	115.312
827.383	107.838
827.512	116.412
827.640	115.412
827.768	112.975
827.896	108.638
828.024	109.250
828.152	109.937
828.280	109.750
828.408	114.000
828.537	113.975
828.665	112.263
828.793	113.950
828.921	113.888
829.049	109.900
829.177	108.925
829.305	106.362
829.433	109.362
829.562	109.350
829.690	109.825
829.818	113.912
829.946	111.000
830.074	109.975
830.202	116.675
830.330	118.138
830.458	119.525
830.587	111.525
830.715	110.412
830.843	110.200
830.971	109.537
831.099	113.787
831.227	109.588
831.355	108.750
831.483	108.850
831.612	112.650
831.740	109.912
831.868	116.037
831.996	109.750
832.124	112.350
832.252	107.763
832.380	109.475
832.508	110.500
832.637	112.787
832.765	111.975
832.893	113.088
833.021	109.675
833.149	107.975
833.277	109.612
833.405	108.100
833.533	109.225
833.662	108.100
833.790	112.650
833.918	112.162
834.046	113.475
834.174	114.475
834.302	111.125
834.430	108.675
834.558	111.287
834.687	108.900
834.815	109.150
834.943	108.838
835.071	108.787
835.199	106.775
835.327	108.862
835.455	106.625
835.583	108.463
835.712	108.400
835.840	111.112
835.968	106.950
836.096	115.537
836.224	111.388
836.352	108.700
836.480	111.562
836.608	115.213
836.737	110.450
836.865	109.487
836.993	108.325
837.121	107.362
837.249	108.562
837.377	109.187
837.505	111.075
837.633	112.487
837.762	108.437
837.890	114.787
838.018	114.050
838.146	109.600
838.274	113.025
838.402	112.487
838.530	106.412
838.658	105.763
838.787	110.125
838.915	112.300
839.043	109.450
839.171	116.650
839.299	112.687
839.427	109.850
839.555	117.263
839.683	110.525
839.812	112.937
839.940	106.963
840.068	109.562
840.196	109.750
840.324	111.625
840.452	112.025
840.580	115.213
840.708	109.400
840.837	110.500
840.965	110.150
841.093	110.600
841.221	109.725
841.349	111.050
841.477	110.050
841.605	107.037
841.733	109.075
841.862	109.437
841.990	111.213
842.118	105.963
842.246	105.362
842.374	104.513
842.502	106.575
842.630	108.112
842.758	106.775
842.887	107.487
843.015	108.362
843.143	112.812
843.271	112.950
843.399	110.013
843.527	106.787
843.655	107.812
843.783	106.800
843.912	110.200
844.040	111.062
844.168	116.875
844.296	113.862
844.424	110.638
844.552	114.050
844.680	114.338
844.808	111.963
844.937	107.200
845.065	107.187
845.193	109.138
845.321	106.588
845.449	108.088
845.577	108.513
845.705	110.500
845.833	108.937
845.962	107.162
846.090	106.550
846.218	108.075
846.346	111.062
846.474	107.362
846.602	105.338
846.730	106.562
846.858	109.388
846.987	109.513
847.115	109.550
847.243	108.825
847.371	110.912
847.499	106.187
847.627	104.937
847.755	105.625
847.883	105.950
848.012	107.100
848.140	109.487
848.268	108.588
848.396	109.625
848.524	109.000
848.652	109.125
848.780	105.375
848.908	106.700
849.037	109.088
849.165	109.937
849.293	111.175
849.421	114.100
849.549	107.850
849.677	109.987
849.805	113.375
849.933	109.850
850.062	108.150
850.190	106.575
850.318	110.450
850.446	106.775
850.574	105.912
850.702	108.787
850.830	109.125
850.958	109.000
851.087	107.975
851.215	110.737
851.343	108.050
851.471	107.950
851.599	109.362
851.727	109.775
851.855	105.787
851.983	108.650
852.112	108.388
852.240	107.713
852.368	109.388
852.496	105.725
852.624	107.112
852.752	106.750
852.880	105.900
853.008	111.138
853.137	107.950
853.265	106.675
853.393	112.162
853.521	111.700
853.649	111.975
853.777	106.287
853.905	106.400
854.033	107.350
854.162	109.237
854.290	106.850
854.418	103.700
854.546	107.425
854.674	110.838
854.802	108.750
854.930	104.487
855.058	103.463
855.187	103.600
855.315	104.263
855.443	104.425
855.571	104.800
855.699	108.350
855.827	108.025
855.955	108.737
856.083	107.763
856.212	107.275
856.340	106.050
856.468	114.800
856.596	110.000
856.724	109.850
856.852	106.888
856.980	109.000
857.108	106.888
857.237	108.550
857.365	107.612
857.493	104.662
857.621	104.912
857.749	103.162
857.877	109.050
858.005	109.075
858.133	106.725
858.262	106.562
858.390	106.375
858.518	104.875
858.646	108.287
858.774	107.687
858.902	106.425
859.030	107.400
859.158	106.700
859.287	108.275
859.415	106.963
859.543	104.713
859.671	109.775
859.799	112.338
859.927	110.225
860.055	109.325
860.183	105.475
860.312	108.575
860.440	108.213
860.568	110.612
860.696	107.425
860.824	120.475
860.952	104.225
861.080	106.437
861.208	106.963
861.337	105.675
861.465	107.325
861.593	112.100
861.721	105.213
861.849	105.062
861.977	108.487
862.105	106.950
862.233	106.287
862.362	107.850
862.490	105.625
862.618	104.950
862.746	104.312
862.874	106.612
863.002	110.537
863.130	110.300
863.258	107.213
863.387	109.000
863.515	108.412
863.643	106.825
863.771	105.463
863.899	106.662
864.027	106.588
864.155	107.463
864.283	107.237
864.412	106.725
864.540	105.425
864.668	105.312
864.796	110.425
864.924	105.037
865.052	107.200
865.180	105.175
865.308	104.125
865.437	103.925
865.565	107.475
865.693	108.150
865.821	107.937
865.949	105.437
866.077	107.575
866.205	106.700
866.333	105.562
866.462	106.562
866.590	102.562
866.718	105.937
866.846	106.050
866.974	107.000
867.102	108.237
867.230	105.800
867.358	107.338
867.487	108.463
867.615	105.400
867.743	106.562
867.871	107.987
867.999	105.162
868.127	105.525
868.255	115.850
868.383	110.037
868.512	108.838
868.640	107.675
868.768	106.037
868.896	106.562
869.024	110.150
869.152	108.412
869.280	105.513
869.408	108.000
869.537	105.638
869.665	111.725
869.793	105.537
869.921	108.412
870.049	108.763
870.177	108.800
870.305	117.200
870.433	108.612
870.562	105.950
870.690	106.013
870.818	106.225
870.946	108.062
871.074	105.062
871.202	109.037
871.330	105.713
871.458	104.838
871.587	106.937
871.715	105.875
871.843	106.350
871.971	109.850
872.099	108.850
872.227	109.687
872.355	108.138
872.483	106.537
872.612	107.125
872.740	108.875
872.868	105.088
872.996	109.850
873.124	110.412
873.252	107.662
873.380	107.425
873.508	108.537
873.637	109.013
873.765	110.975
873.893	107.925
874.021	106.838
874.149	104.037
874.277	104.987
874.405	109.612
874.533	107.175
874.662	324.137
874.790	113.588
874.918	113.250
875.046	110.000
875.174	107.237
875.302	105.912
875.430	107.687
875.558	105.700
875.687	109.875
875.815	107.713
875.943	106.075
876.071	107.162
876.199	108.638
876.327	116.662
876.455	107.388
876.583	105.562
876.712	109.625
876.840	109.463
876.968	107.612
877.096	106.487
877.224	104.275
877.352	102.112
877.480	104.600
877.608	107.125
877.737	106.550
877.865	105.187
877.993	108.112
878.121	106.100
878.249	108.675
878.377	106.362
878.505	105.650
878.633	105.875
878.762	104.737
878.890	108.250
879.018	105.900
879.146	107.600
879.274	106.575
879.402	108.500
879.530	108.650
879.658	107.075
879.787	110.275
879.915	107.888
880.043	106.737
880.171	105.900
880.299	105.625
880.427	116.225
880.555	109.125
880.683	110.075
880.812	106.662
880.940	108.175
881.068	105.838
881.196	106.375
881.324	106.963
881.452	108.537
881.580	106.700
881.708	108.037
881.837	104.588
881.965	105.675
882.093	106.088
882.221	106.112
882.349	106.375
882.477	110.550
882.605	109.487
882.733	107.062
882.862	106.450
882.990	105.112
883.118	105.000
883.246	107.925
883.374	108.925
883.502	107.700
883.630	105.375
883.758	105.862
883.887	103.450
884.015	105.550
884.143	107.162
884.271	106.662
884.399	106.675
884.527	107.812
884.655	104.763
884.783	106.125
884.912	107.662
885.040	107.175
885.168	106.162
885.296	105.650
885.424	106.963
885.552	108.138
885.680	107.562
885.808	106.088
885.937	107.100
886.065	108.425
886.193	107.662
886.321	106.625
886.449	106.412
886.577	106.975
886.705	106.612
886.833	106.088
886.962	106.138
887.090	107.437
887.218	105.575
887.346	109.200
887.474	114.013
887.602	109.525
887.730	103.825
887.858	109.000
887.987	108.263
888.115	113.875
888.243	112.975
888.371	108.300
888.499	105.362
888.627	105.237
888.755	106.675
888.883	106.463
889.012	104.638
889.140	106.362
889.268	109.487
889.396	117.888
889.524	108.612
889.652	105.237
889.780	108.088
889.908	107.588
890.037	107.912
890.165	105.875
890.293	106.713
890.421	105.900
890.549	107.338
890.677	107.425
890.805	105.825
890.933	102.487
891.062	104.350
891.190	111.200
891.318	109.013
891.446	107.500
891.574	108.588
891.702	105.987
891.830	106.325
891.958	108.575
892.087	113.112
892.215	107.662
892.343	109.062
892.471	107.900
892.599	111.812
892.727	114.037
892.855	108.725
892.983	106.987
893.112	106.225
893.240	107.187
893.368	107.925
893.496	118.287
893.624	110.500
893.752	107.950
893.880	107.950
894.008	106.487
894.137	112.487
894.265	110.737
894.393	109.287
894.521	107.875
894.649	108.600
894.777	107.275
894.905	108.850
895.033	113.287
895.162	114.187
895.290	116.513
895.418	111.912
895.546	112.412
895.674	116.000
895.802	108.362
895.930	107.175
896.058	105.612
896.187	105.013
896.315	107.487
896.443	107.912
896.571	108.300
896.699	106.825
896.827	104.187
896.955	106.963
897.083	108.100
897.212	107.513
897.340	106.013
897.468	107.037
897.596	109.037
897.724	107.850
897.852	115.675
897.980	107.050
898.108	108.162
898.237	107.125
898.365	106.875
898.493	107.225
898.621	108.838
898.749	106.500
898.877	111.175
899.005	108.287
899.133	107.125
899.262	106.950
899.390	108.125
899.518	110.000
899.646	110.412
899.774	113.575
899.902	115.875
900.030	109.200
900.158	104.963
900.287	109.737
900.415	106.437
900.543	108.437
900.671	116.525
900.799	110.900
900.927	110.687
901.055	108.800
901.183	108.700
901.312	107.287
901.440	111.437
901.568	110.425
901.696	111.338
901.824	108.888
901.952	114.888
902.080	112.275
902.208	109.862
902.337	108.200
902.465	110.937
902.593	108.687
902.721	108.213
902.849	108.600
902.977	108.763
903.105	114.650
903.233	117.125
903.362	112.437
903.490	112.800
903.618	108.162
903.746	109.362
903.874	108.525
904.002	106.625
904.130	113.638
904.258	109.737
904.387	107.713
904.515	106.900
904.643	107.713
904.771	110.150
904.899	109.412
905.027	109.888
905.155	105.350
905.283	107.950
905.412	111.725
905.540	110.713
905.668	109.588
905.796	107.750
905.924	108.463
906.052	110.838
906.180	111.888
906.308	117.062
906.437	114.312
906.565	111.912
906.693	110.000
906.821	106.912
906.949	109.162
907.077	110.500
907.205	111.475
907.333	111.700
907.462	109.437
907.590	110.812
907.718	114.037
907.846	119.050
907.974	111.825
908.102	113.088
908.230	112.125
908.358	112.463
908.487	113.338
908.615	111.138
908.743	110.338
908.871	110.737
908.999	112.550
909.127	113.450
909.255	106.662
909.383	111.275
909.512	115.088
909.640	109.975
909.768	109.638
909.896	121.900
910.024	113.550
910.152	112.225
910.280	117.612
910.408	112.025
910.537	112.987
910.665	115.575
910.793	114.550
910.921	116.175
911.049	114.025
911.177	111.437
911.305	116.900
911.433	110.013
911.562	112.450
911.690	110.775
911.818	122.450
911.946	122.362
912.074	116.463
912.202	121.763
912.330	114.550
912.458	113.975
912.587	116.025
912.715	114.662
912.843	110.225
912.971	116.225
913.099	116.325
913.227	116.838
913.355	115.650
913.483	115.425
913.612	116.062
913.740	128.662
913.868	112.225
