sample13_PS_at_750.00nm_cut_at_1008.00Y_01.dat
15.05.2023
12:28:39
cut middle at Y: 1008.00
top cursor: 1048 down cursor: 968 mean of: 80 lines , 2560 datapoints
wavelength(nm)	intensity[arb. units]
585.996	1783.500
586.124	1744.600
586.252	1734.725
586.380	1715.575
586.508	1733.412
586.637	1735.862
586.765	1711.588
586.893	1733.763
587.021	1736.237
587.149	1736.862
587.277	1738.125
587.405	1745.263
587.533	1728.150
587.662	1755.937
587.790	1762.150
587.918	1749.638
588.046	1747.325
588.174	1740.500
588.302	1755.000
588.430	1750.013
588.558	1746.737
588.687	1749.838
588.815	1786.100
588.943	1760.775
589.071	1751.100
589.199	1776.612
589.327	1751.287
589.455	1737.100
589.583	1755.125
589.712	1749.300
589.840	1762.975
589.968	1739.375
590.096	1751.175
590.224	1749.825
590.352	1758.425
590.480	1741.350
590.608	1749.625
590.737	1742.675
590.865	1746.062
590.993	1742.500
591.121	1741.937
591.249	1760.600
591.377	1752.875
591.505	1739.838
591.633	1753.237
591.762	1767.763
591.890	1768.725
592.018	1746.513
592.146	1740.075
592.274	1758.025
592.402	1746.775
592.530	1757.325
592.658	1753.737
592.787	1744.800
592.915	1744.838
593.043	1753.975
593.171	1750.625
593.299	1773.375
593.427	1753.287
593.555	1757.612
593.683	1766.362
593.812	1751.362
593.940	1763.450
594.068	1766.125
594.196	1800.763
594.324	1748.138
594.452	1788.625
594.580	1803.450
594.708	1775.237
594.837	1799.388
594.965	1786.475
595.093	1796.425
595.221	1807.487
595.349	1801.525
595.477	1810.550
595.605	1795.088
595.733	1839.700
595.862	1831.513
595.990	1808.350
596.118	1815.800
596.246	1831.050
596.374	1846.325
596.502	1859.475
596.630	1846.412
596.758	1856.050
596.887	1866.737
597.015	1877.662
597.143	1843.125
597.271	1850.112
597.399	1859.812
597.527	1867.075
597.655	1866.100
597.783	1869.000
597.912	1861.725
598.040	1856.475
598.168	1866.463
598.296	1855.575
598.424	1836.500
598.552	1861.037
598.680	1842.500
598.808	1855.987
598.937	1860.787
599.065	1856.525
599.193	1839.537
599.321	1820.737
599.449	1858.588
599.577	1834.237
599.705	1829.825
599.833	1826.588
599.962	1842.838
600.090	1827.725
600.218	1825.562
600.346	1858.675
600.474	1839.575
600.602	1840.812
600.730	1832.275
600.858	1853.713
600.987	1834.763
601.115	1852.062
601.243	1828.312
601.371	1852.013
601.499	1855.425
601.627	1853.187
601.755	1867.213
601.883	1879.300
602.012	1887.362
602.140	1870.400
602.268	1877.362
602.396	1877.625
602.524	1883.975
602.652	1899.513
602.780	1885.888
602.908	1899.737
603.037	1901.350
603.165	1917.125
603.293	1922.838
603.421	1933.513
603.549	1926.263
603.677	1952.675
603.805	1935.787
603.933	1940.963
604.062	1951.975
604.190	1973.037
604.318	1956.513
604.446	1995.562
604.574	2003.963
604.702	1994.013
604.830	1989.650
604.958	2006.875
605.087	2033.388
605.215	2026.025
605.343	2044.237
605.471	2037.475
605.599	2037.850
605.727	2059.425
605.855	2063.463
605.983	2044.400
606.112	2076.200
606.240	2080.050
606.368	2087.162
606.496	2095.238
606.624	2075.088
606.752	2083.225
606.880	2102.863
607.008	2115.750
607.137	2117.900
607.265	2125.738
607.393	2131.363
607.521	2115.725
607.649	2106.675
607.777	2111.988
607.905	2104.512
608.033	2127.575
608.162	2121.137
608.290	2120.875
608.418	2139.812
608.546	2125.012
608.674	2158.387
608.802	2134.650
608.930	2144.838
609.058	2134.512
609.187	2131.437
609.315	2125.412
609.443	2141.887
609.571	2154.963
609.699	2134.525
609.827	2124.750
609.955	2135.238
610.083	2124.425
610.212	2137.062
610.340	2140.287
610.468	2150.363
610.596	2154.775
610.724	2122.825
610.852	2152.613
610.980	2133.875
611.108	2152.062
611.237	2144.037
611.365	2144.137
611.493	2140.825
611.621	2167.025
611.749	2162.025
611.877	2175.963
612.005	2163.637
612.133	2160.525
612.262	2163.650
612.390	2166.012
612.518	2172.662
612.646	2177.850
612.774	2177.937
612.902	2192.988
613.030	2185.650
613.158	2197.387
613.287	2226.787
613.415	2210.812
613.543	2205.062
613.671	2209.175
613.799	2224.988
613.927	2218.887
614.055	2218.150
614.183	2252.250
614.312	2235.725
614.440	2266.088
614.568	2248.363
614.696	2249.400
614.824	2268.675
614.952	2254.225
615.080	2277.675
615.208	2271.863
615.337	2290.812
615.465	2291.713
615.593	2315.588
615.721	2308.463
615.849	2330.325
615.977	2330.687
616.105	2323.625
616.233	2341.375
616.362	2359.988
616.490	2341.175
616.618	2361.675
616.746	2361.250
616.874	2354.662
617.002	2367.650
617.130	2411.975
617.258	2412.425
617.387	2382.825
617.515	2383.425
617.643	2401.925
617.771	2419.675
617.899	2424.950
618.027	2409.375
618.155	2441.750
618.283	2419.675
618.412	2427.787
618.540	2459.125
618.668	2445.437
618.796	2431.300
618.924	2499.262
619.052	2447.562
619.180	2452.312
619.308	2467.150
619.437	2467.662
619.565	2476.925
619.693	2459.325
619.821	2484.137
619.949	2465.125
620.077	2502.825
620.205	2496.363
620.333	2500.275
620.462	2518.700
620.590	2546.500
620.718	2489.387
620.846	2525.537
620.974	2577.838
621.102	2505.238
621.230	2514.750
621.358	2586.838
621.487	2526.037
621.615	2537.887
621.743	2551.325
621.871	2537.800
621.999	2568.875
622.127	2554.375
622.255	2527.500
622.383	2549.325
622.512	2562.787
622.640	2620.012
622.768	2533.575
622.896	2553.800
623.024	2547.287
623.152	2600.838
623.280	2568.588
623.408	2558.812
623.537	2584.550
623.665	2553.637
623.793	2596.725
623.921	2557.650
624.049	2562.300
624.177	2585.088
624.305	2606.300
624.433	2596.887
624.562	2614.125
624.690	2597.588
624.818	2634.625
624.946	2714.213
625.074	2606.975
625.202	2604.787
625.330	2602.912
625.458	2634.588
625.587	2615.600
625.715	2645.463
625.843	2692.425
625.971	2638.162
626.099	2628.512
626.227	2652.963
626.355	2626.012
626.483	2695.975
626.612	2628.812
626.740	2624.225
626.868	2671.350
626.996	2624.488
627.124	2654.650
627.252	2640.450
627.380	2675.375
627.508	2679.662
627.637	2633.662
627.765	2688.675
627.893	2677.162
628.021	2668.863
628.149	2701.200
628.277	2726.562
628.405	2754.137
628.533	2693.537
628.662	2736.425
628.790	2709.475
628.918	2724.325
629.046	2729.075
629.174	2721.187
629.302	2806.787
629.430	2743.437
629.558	2780.725
629.687	2764.375
629.815	2771.850
629.943	2802.338
630.071	2811.175
630.199	2779.800
630.327	2816.537
630.455	2785.025
630.583	2874.713
630.712	2840.963
630.840	2823.113
630.968	2880.500
631.096	2847.325
631.224	2845.137
631.352	2841.275
631.480	2874.325
631.608	2874.312
631.737	2962.812
631.865	3051.662
631.993	2883.412
632.121	3006.175
632.249	2980.613
632.377	2957.287
632.505	2966.150
632.633	2909.050
632.762	2986.988
632.890	3055.950
633.018	2925.387
633.146	2973.025
633.274	2994.825
633.402	2979.900
633.530	2964.287
633.658	3114.000
633.787	2948.887
633.915	3062.437
634.043	2988.825
634.171	2981.750
634.299	3041.475
634.427	3119.838
634.555	3066.537
634.683	3007.450
634.812	3009.512
634.940	3021.775
635.068	3006.537
635.196	3047.963
635.324	3027.162
635.452	3108.500
635.580	3038.887
635.708	3040.050
635.837	3107.437
635.965	3059.100
636.093	3049.150
636.221	3034.762
636.349	3131.488
636.477	3019.838
636.605	3240.387
636.733	2995.325
636.862	3043.300
636.990	3056.500
637.118	3128.738
637.246	3107.338
637.374	3075.225
637.502	3056.338
637.630	3038.300
637.758	3080.600
637.887	3049.600
638.015	3033.812
638.143	3042.500
638.271	3052.713
638.399	3047.625
638.527	3052.050
638.655	3003.150
638.783	3199.588
638.912	3101.750
639.040	3084.700
639.168	3103.325
639.296	3057.238
639.424	3222.825
639.552	3038.750
639.680	3086.588
639.808	3128.588
639.937	3036.338
640.065	3072.588
640.193	3165.875
640.321	3064.850
640.449	3154.275
640.577	3188.863
640.705	3093.775
640.833	3218.925
640.962	3077.787
641.090	3082.850
641.218	3066.113
641.346	3127.775
641.474	3143.225
641.602	3113.838
641.730	3127.838
641.858	3121.338
641.987	3153.725
642.115	3112.675
642.243	3182.588
642.371	3157.387
642.499	3157.387
642.627	3158.400
642.755	3220.812
642.883	3235.225
643.012	3174.875
643.140	3137.525
643.268	3178.963
643.396	3220.562
643.524	3332.750
643.652	3199.463
643.780	3210.912
643.908	3209.825
644.037	3350.012
644.165	3209.775
644.293	3220.912
644.421	3215.488
644.549	3312.762
644.677	3240.150
644.805	3323.175
644.933	3242.800
645.062	3258.062
645.190	3289.488
645.318	3376.662
645.446	3314.075
645.574	3302.387
645.702	3295.387
645.830	3487.025
645.958	3282.363
646.087	3512.838
646.215	3297.187
646.343	3500.900
646.471	3395.875
646.599	3404.887
646.727	3347.125
646.855	3360.062
646.983	3408.150
647.112	3330.512
647.240	3522.500
647.368	3382.463
647.496	3459.762
647.624	3328.387
647.752	3331.550
647.880	3394.575
648.008	3385.475
648.137	3360.175
648.265	3368.437
648.393	3372.300
648.521	3409.725
648.649	3398.113
648.777	3395.412
648.905	3360.250
649.033	3427.537
649.162	3414.588
649.290	3394.275
649.418	3450.113
649.546	3429.238
649.674	3469.738
649.802	3430.738
649.930	3576.950
650.058	3359.012
650.187	3440.600
650.315	3356.613
650.443	3469.963
650.571	3411.450
650.699	3382.838
650.827	3395.062
650.955	3426.775
651.083	3412.787
651.212	3476.312
651.340	3484.137
651.468	3426.375
651.596	3423.012
651.724	3382.137
651.852	3396.812
651.980	3372.900
652.108	3502.437
652.237	3434.912
652.365	3518.812
652.493	3369.838
652.621	3402.925
652.749	3484.238
652.877	3354.325
653.005	3466.113
653.133	3387.000
653.262	3451.350
653.390	3371.338
653.518	3512.300
653.646	3413.100
653.774	3598.312
653.902	3454.275
654.030	3381.425
654.158	3412.650
654.287	3375.662
654.415	3424.975
654.543	3410.738
654.671	3508.825
654.799	3429.113
654.927	3377.312
655.055	3372.750
655.183	3427.012
655.312	3391.425
655.440	3434.850
655.568	3388.975
655.696	3495.750
655.824	3525.162
655.952	3388.175
656.080	3365.800
656.208	3558.750
656.337	3428.713
656.465	3401.912
656.593	3462.613
656.721	3425.650
656.849	3478.287
656.977	3405.425
657.105	3401.262
657.233	3369.875
657.362	3382.225
657.490	3399.312
657.618	3392.937
657.746	3404.650
657.874	3386.625
658.002	3345.687
658.130	3389.925
658.258	3345.800
658.387	3394.988
658.515	3351.287
658.643	3420.713
658.771	3377.375
658.899	3382.900
659.027	3390.137
659.155	3402.875
659.283	3586.387
659.412	3373.550
659.540	3504.400
659.668	3360.425
659.796	3406.375
659.924	3465.275
660.052	3391.687
660.180	3430.637
660.308	3411.463
660.437	3429.512
660.565	3391.488
660.693	3381.725
660.821	3393.175
660.949	3386.175
661.077	3377.375
661.205	3411.312
661.333	3349.850
661.462	3497.762
661.590	3429.412
661.718	3583.025
661.846	3487.900
661.974	3569.113
662.102	3402.062
662.230	3439.363
662.358	3409.650
662.487	3404.550
662.615	3358.887
662.743	3352.950
662.871	3388.900
662.999	3349.287
663.127	3355.662
663.255	3513.575
663.383	3484.625
663.512	3362.687
663.640	3388.613
663.768	3358.850
663.896	3402.262
664.024	3444.900
664.152	3375.137
664.280	3428.137
664.408	3409.475
664.537	3433.900
664.665	3345.412
664.793	3341.825
664.921	3348.525
665.049	3398.725
665.177	3388.637
665.305	3382.412
665.433	3387.988
665.562	3355.262
665.690	3416.937
665.818	3581.025
665.946	3413.150
666.074	3377.512
666.202	3366.575
666.330	3433.225
666.458	3406.550
666.587	3326.625
666.715	3379.725
666.843	3350.787
666.971	3333.838
667.099	3396.463
667.227	3369.650
667.355	3419.900
667.483	3354.300
667.612	3387.100
667.740	3399.075
667.868	3447.475
667.996	3399.350
668.124	3360.650
668.252	3349.725
668.380	3345.312
668.508	3382.975
668.637	3373.625
668.765	3351.787
668.893	3433.575
669.021	3333.675
669.149	3442.125
669.277	3439.562
669.405	3354.525
669.533	3357.325
669.662	3617.637
669.790	3390.025
669.918	3469.950
670.046	3351.850
670.174	3451.450
670.302	3438.062
670.430	3403.900
670.558	3437.463
670.687	3357.275
670.815	3534.050
670.943	3295.675
671.071	3323.738
671.199	3397.300
671.327	3333.700
671.455	3374.075
671.583	3333.838
671.712	3502.662
671.840	3333.713
671.968	3312.800
672.096	3327.562
672.224	3295.775
672.352	3510.275
672.480	3324.300
672.608	3293.575
672.737	3284.213
672.865	3497.037
672.993	3298.738
673.121	3257.662
673.249	3289.625
673.377	3234.775
673.505	3256.387
673.633	3287.613
673.762	3252.575
673.890	3254.000
674.018	3493.300
674.146	3265.300
674.274	3241.550
674.402	3442.425
674.530	3257.550
674.658	3251.675
674.787	3206.100
674.915	3187.925
675.043	3292.600
675.171	3272.325
675.299	3197.787
675.427	3237.175
675.555	3185.287
675.683	3181.463
675.812	3189.537
675.940	3184.100
676.068	3208.463
676.196	3166.875
676.324	3170.500
676.452	3219.625
676.580	3155.312
676.708	3202.037
676.837	3218.562
676.965	3112.213
677.093	3134.600
677.221	3140.425
677.349	3188.825
677.477	3217.175
677.605	3145.062
677.733	3207.725
677.862	3075.900
677.990	3103.475
678.118	3066.812
678.246	3118.850
678.374	3095.363
678.502	3065.500
678.630	3038.838
678.758	3021.238
678.887	3055.937
679.015	3043.125
679.143	3043.187
679.271	3029.662
679.399	3037.463
679.527	3056.250
679.655	2993.512
679.783	3049.988
679.912	3028.325
680.040	3017.400
680.168	3023.562
680.296	3017.600
680.424	2970.037
680.552	3010.500
680.680	3076.225
680.808	2964.225
680.937	2953.738
681.065	2973.863
681.193	2973.200
681.321	2972.062
681.449	2945.700
681.577	2958.500
681.705	2980.225
681.833	2948.863
681.962	2916.075
682.090	3097.738
682.218	2912.800
682.346	2874.287
682.474	2945.875
682.602	2915.963
682.730	2921.588
682.858	2903.762
682.987	2945.963
683.115	2925.875
683.243	2898.425
683.371	2873.287
683.499	2874.463
683.627	2942.025
683.755	2965.550
683.883	3062.150
684.012	2913.187
684.140	2872.312
684.268	2863.012
684.396	2891.050
684.524	2910.800
684.652	2945.625
684.780	2943.825
684.908	2915.738
685.037	2843.588
685.165	2820.550
685.293	2861.963
685.421	2917.037
685.549	2836.350
685.677	2847.750
685.805	2999.937
685.933	2877.050
686.062	2815.575
686.190	2836.025
686.318	2876.387
686.446	2832.450
686.574	2812.912
686.702	2901.338
686.830	2799.338
686.958	2826.950
687.087	2806.450
687.215	2839.363
687.343	2800.150
687.471	2807.187
687.599	2807.400
687.727	2946.387
687.855	2810.137
687.983	2832.175
688.112	2902.687
688.240	2762.875
688.368	2757.812
688.496	2803.113
688.624	2845.387
688.752	2732.562
688.880	2749.037
689.008	2783.463
689.137	2764.387
689.265	2723.550
689.393	2731.912
689.521	2752.012
689.649	2731.762
689.777	2716.250
689.905	2728.512
690.033	2720.312
690.162	2737.300
690.290	2711.137
690.418	2715.300
690.546	2749.588
690.674	2787.062
690.802	2677.700
690.930	2723.600
691.058	2715.425
691.187	2692.650
691.315	2675.800
691.443	2721.900
691.571	2671.050
691.699	2690.162
691.827	2709.575
691.955	2643.475
692.083	2664.488
692.212	2760.175
692.340	2642.625
692.468	2646.863
692.596	2650.238
692.724	2733.812
692.852	2621.350
692.980	2648.225
693.108	2622.600
693.237	2604.937
693.365	2608.838
693.493	2583.637
693.621	2566.762
693.749	2587.900
693.877	2553.762
694.005	2603.537
694.133	2589.450
694.262	2585.500
694.390	2563.838
694.518	2530.338
694.646	2537.450
694.774	2532.613
694.902	2551.012
695.030	2595.637
695.158	2508.162
695.287	2527.762
695.415	2503.725
695.543	2511.537
695.671	2514.175
695.799	2462.900
695.927	2481.963
696.055	2484.975
696.183	2504.037
696.312	2468.500
696.440	2500.125
696.568	2470.412
696.696	2444.725
696.824	2435.925
696.952	2440.900
697.080	2419.325
697.208	2442.475
697.337	2417.375
697.465	2407.662
697.593	2388.012
697.721	2399.150
697.849	2385.062
697.977	2392.387
698.105	2399.725
698.233	2385.475
698.362	2353.700
698.490	2362.825
698.618	2362.437
698.746	2370.838
698.874	2352.525
699.002	2365.375
699.130	2336.738
699.258	2328.750
699.387	2306.012
699.515	2320.262
699.643	2324.875
699.771	2325.025
699.899	2294.287
700.027	2313.925
700.155	2287.575
700.283	2300.275
700.412	2282.162
700.540	2274.537
700.668	2271.250
700.796	2267.575
700.924	2259.588
701.052	2253.488
701.180	2244.300
701.308	2252.863
701.437	2215.450
701.565	2235.588
701.693	2221.575
701.821	2239.750
701.949	2219.088
702.077	2187.050
702.205	2209.200
702.333	2196.175
702.462	2189.613
702.590	2182.900
702.718	2178.012
702.846	2175.800
702.974	2164.838
703.102	2153.850
703.230	2159.662
703.358	2145.650
703.487	2125.062
703.615	2135.225
703.743	2108.287
703.871	2117.937
703.999	2094.537
704.127	2084.250
704.255	2086.963
704.383	2108.275
704.512	2076.787
704.640	2075.550
704.768	2052.500
704.896	2052.738
705.024	2046.275
705.152	2040.388
705.280	2036.425
705.408	2032.350
705.537	2020.912
705.665	2027.187
705.793	2020.700
705.921	2006.013
706.049	2015.975
706.177	1993.725
706.305	1986.388
706.433	1981.800
706.562	1974.350
706.690	1967.463
706.818	1954.875
706.946	1972.000
707.074	1948.138
707.202	1937.213
707.330	1945.075
707.458	1938.750
707.587	1914.950
707.715	1925.513
707.843	1907.175
707.971	1936.075
708.099	1919.625
708.227	1891.187
708.355	1900.787
708.483	1887.213
708.612	1887.412
708.740	1873.513
708.868	1862.150
708.996	1878.463
709.124	1869.937
709.252	1856.325
709.380	1853.612
709.508	1821.338
709.637	1821.412
709.765	1837.062
709.893	1817.050
710.021	1823.463
710.149	1801.400
710.277	1824.513
710.405	1823.250
710.533	1798.750
710.662	1785.162
710.790	1817.162
710.918	1785.588
711.046	1789.950
711.174	1770.025
711.302	1768.588
711.430	1756.050
711.558	1758.725
711.687	1758.300
711.815	1740.513
711.943	1753.500
712.071	1746.888
712.199	1742.687
712.327	1725.825
712.455	1720.263
712.583	1725.000
712.712	1746.850
712.840	1715.888
712.968	1706.162
713.096	1709.437
713.224	1703.150
713.352	1694.225
713.480	1679.912
713.608	1680.400
713.737	1675.025
713.865	1658.937
713.993	1669.213
714.121	1658.437
714.249	1663.187
714.377	1654.437
714.505	1676.612
714.633	1638.550
714.762	1617.050
714.890	1634.187
715.018	1631.588
715.146	1604.625
715.274	1617.575
715.402	1613.263
715.530	1618.213
715.658	1604.437
715.787	1612.250
715.915	1604.487
716.043	1587.537
716.171	1598.213
716.299	1618.838
716.427	1581.675
716.555	1564.975
716.683	1561.525
716.812	1559.400
716.940	1573.425
717.068	1533.912
717.196	1564.525
717.324	1555.287
717.452	1558.088
717.580	1526.725
717.708	1534.412
717.837	1548.487
717.965	1524.000
718.093	1513.800
718.221	1515.525
718.349	1503.825
718.477	1501.175
718.605	1495.825
718.733	1488.575
718.862	1485.175
718.990	1477.800
719.118	1486.138
719.246	1472.275
719.374	1480.925
719.502	1492.263
719.630	1472.937
719.758	1465.662
719.887	1463.463
720.015	1466.862
720.143	1446.625
720.271	1452.125
720.399	1445.175
720.527	1424.612
720.655	1438.225
720.783	1421.075
720.912	1433.225
721.040	1435.862
721.168	1414.638
721.296	1411.350
721.424	1412.013
721.552	1394.600
721.680	1392.750
721.808	1393.400
721.937	1401.787
722.065	1390.687
722.193	1361.325
722.321	1373.562
722.449	1375.750
722.577	1375.425
722.705	1361.300
722.833	1352.263
722.962	1354.200
723.090	1347.975
723.218	1343.037
723.346	1347.250
723.474	1334.100
723.602	1344.875
723.730	1330.550
723.858	1326.838
723.987	1319.713
724.115	1309.312
724.243	1308.675
724.371	1299.937
724.499	1314.025
724.627	1304.075
724.755	1304.700
724.883	1293.475
725.012	1289.263
725.140	1265.513
725.268	1274.675
725.396	1267.112
725.524	1257.437
725.652	1259.638
725.780	1242.900
725.908	1239.325
726.037	1253.037
726.165	1239.713
726.293	1222.525
726.421	1220.037
726.549	1236.437
726.677	1236.537
726.805	1225.325
726.933	1211.013
727.062	1201.975
727.190	1189.437
727.318	1201.737
727.446	1198.500
727.574	1195.162
727.702	1184.900
727.830	1181.500
727.958	1187.187
728.087	1179.200
728.215	1157.838
728.343	1155.300
728.471	1178.375
728.599	1147.812
728.727	1153.475
728.855	1144.937
728.983	1138.787
729.112	1137.850
729.240	1145.138
729.368	1126.487
729.496	1135.162
729.624	1117.138
729.752	1124.800
729.880	1123.013
730.008	1119.825
730.137	1109.650
730.265	1115.687
730.393	1098.150
730.521	1102.487
730.649	1092.787
730.777	1093.487
730.905	1078.850
731.033	1086.250
731.162	1082.425
731.290	1082.225
731.418	1078.588
731.546	1091.612
731.674	1058.275
731.802	1058.937
731.930	1069.225
732.058	1056.162
732.187	1055.400
732.315	1046.550
732.443	1052.937
732.571	1030.450
732.699	1022.763
732.827	1038.225
732.955	1029.150
733.083	1017.325
733.212	1011.013
733.340	1022.462
733.468	1012.000
733.596	1019.125
733.724	1004.425
733.852	1015.138
733.980	1000.538
734.108	1002.987
734.237	1008.200
734.365	982.062
734.493	998.200
734.621	989.225
734.749	990.975
734.877	981.050
735.005	978.763
735.133	974.950
735.262	981.413
735.390	964.837
735.518	960.475
735.646	954.337
735.774	960.825
735.902	959.587
736.030	959.062
736.158	945.550
736.287	949.962
736.415	956.462
736.543	941.062
736.671	940.375
736.799	937.138
736.927	931.038
737.055	932.038
737.183	931.538
737.312	921.788
737.440	928.625
737.568	946.362
737.696	917.275
737.824	919.950
737.952	931.600
738.080	916.175
738.208	912.275
738.337	902.288
738.465	919.388
738.593	891.550
738.721	888.325
738.849	891.812
738.977	885.275
739.105	890.400
739.233	888.275
739.362	877.675
739.490	874.725
739.618	872.025
739.746	874.987
739.874	875.450
740.002	872.400
740.130	857.100
740.258	864.475
740.387	861.763
740.515	854.175
740.643	850.875
740.771	866.125
740.899	843.038
741.027	842.925
741.155	845.325
741.283	834.550
741.412	836.525
741.540	828.413
741.668	821.212
741.796	819.500
741.924	839.712
742.052	820.325
742.180	811.312
742.308	822.000
742.437	810.550
742.565	814.062
742.693	817.487
742.821	795.750
742.949	803.763
743.077	813.237
743.205	794.450
743.333	793.700
743.462	792.187
743.590	785.800
743.718	774.888
743.846	788.675
743.974	783.800
744.102	770.263
744.230	766.075
744.358	771.375
744.487	785.112
744.615	765.600
744.743	764.525
744.871	756.288
744.999	760.437
745.127	750.875
745.255	742.750
745.383	748.437
745.512	747.388
745.640	739.187
745.768	743.937
745.896	742.175
746.024	731.763
746.152	731.888
746.280	735.562
746.408	731.275
746.537	723.962
746.665	726.562
746.793	718.925
746.921	717.187
747.049	721.050
747.177	717.825
747.305	706.675
747.433	711.437
747.562	705.462
747.690	693.525
747.818	694.150
747.946	688.600
748.074	699.587
748.202	687.625
748.330	682.413
748.458	680.862
748.587	675.700
748.715	667.275
748.843	686.025
748.971	684.862
749.099	674.437
749.227	668.175
749.355	653.612
749.483	668.663
749.612	652.575
749.740	648.538
749.868	660.375
749.996	649.575
750.124	644.562
750.252	650.687
750.380	640.038
750.508	636.950
750.637	635.575
750.765	638.437
750.893	633.712
751.021	632.050
751.149	626.050
751.277	634.600
751.405	633.362
751.533	635.700
751.662	629.525
751.790	637.087
751.918	629.775
752.046	615.663
752.174	605.650
752.302	614.225
752.430	611.937
752.558	605.425
752.687	603.650
752.815	617.587
752.943	595.400
753.071	592.663
753.199	579.513
753.327	602.950
753.455	584.750
753.583	580.825
753.712	588.913
753.840	581.587
753.968	579.775
754.096	570.150
754.224	573.038
754.352	555.150
754.480	559.138
754.608	554.388
754.737	559.250
754.865	570.425
754.993	557.275
755.121	547.050
755.249	563.300
755.377	543.675
755.505	547.187
755.633	560.775
755.762	546.487
755.890	550.700
756.018	544.612
756.146	537.538
756.274	538.500
756.402	527.288
756.530	530.500
756.658	538.712
756.787	523.925
756.915	515.200
757.043	524.450
757.171	519.025
757.299	506.762
757.427	521.075
757.555	513.050
757.683	511.637
757.812	506.988
757.940	508.363
758.068	499.887
758.196	495.350
758.324	499.700
758.452	489.575
758.580	494.100
758.708	495.087
758.837	483.038
758.965	499.812
759.093	480.363
759.221	487.600
759.349	479.850
759.477	481.400
759.605	463.988
759.733	477.387
759.862	478.800
759.990	464.100
760.118	470.687
760.246	458.950
760.374	463.275
760.502	467.288
760.630	457.200
760.758	452.900
760.887	448.212
761.015	454.212
761.143	451.712
761.271	440.525
761.399	449.950
761.527	438.125
761.655	438.800
761.783	445.250
761.912	436.937
762.040	435.550
762.168	428.587
762.296	430.550
762.424	432.000
762.552	426.863
762.680	434.937
762.808	422.750
762.937	421.075
763.065	425.175
763.193	419.150
763.321	417.175
763.449	408.700
763.577	408.212
763.705	417.350
763.833	435.600
763.962	406.812
764.090	402.062
764.218	406.450
764.346	407.962
764.474	390.163
764.602	397.300
764.730	398.337
764.858	385.113
764.987	389.613
765.115	397.675
765.243	401.125
765.371	388.100
765.499	377.762
765.627	381.538
765.755	373.738
765.883	378.575
766.012	376.312
766.140	371.625
766.268	374.837
766.396	372.775
766.524	374.225
766.652	366.462
766.780	368.250
766.908	369.863
767.037	362.375
767.165	366.325
767.293	374.437
767.421	362.413
767.549	357.250
767.677	359.363
767.805	352.212
767.933	358.462
768.062	355.725
768.190	353.850
768.318	348.337
768.446	363.238
768.574	359.100
768.702	354.812
768.830	346.788
768.958	339.300
769.087	350.025
769.215	341.387
769.343	342.825
769.471	341.587
769.599	345.825
769.727	335.137
769.855	340.550
769.983	331.488
770.112	336.450
770.240	336.975
770.368	335.312
770.496	335.575
770.624	326.762
770.752	334.363
770.880	338.538
771.008	320.375
771.137	324.950
771.265	324.050
771.393	323.400
771.521	319.712
771.649	316.937
771.777	320.863
771.905	320.163
772.033	317.625
772.162	317.538
772.290	315.562
772.418	326.712
772.546	315.238
772.674	316.488
772.802	313.975
772.930	313.975
773.058	309.062
773.187	308.812
773.315	310.887
773.443	308.600
773.571	303.262
773.699	301.812
773.827	298.288
773.955	307.637
774.083	313.325
774.212	299.525
774.340	300.300
774.468	298.363
774.596	300.637
774.724	306.937
774.852	289.413
774.980	295.325
775.108	292.675
775.237	290.837
775.365	290.062
775.493	288.175
775.621	291.675
775.749	292.200
775.877	293.725
776.005	284.300
776.133	291.650
776.262	282.700
776.390	278.337
776.518	293.550
776.646	281.850
776.774	280.325
776.902	282.600
777.030	282.300
777.158	275.975
777.287	279.175
777.415	278.512
777.543	276.150
777.671	269.150
777.799	269.962
777.927	273.450
778.055	275.712
778.183	278.113
778.312	264.562
778.440	263.038
778.568	273.550
778.696	266.538
778.824	267.075
778.952	265.413
779.080	266.587
779.208	269.625
779.337	266.925
779.465	272.488
779.593	263.875
779.721	262.725
779.849	261.337
779.977	264.113
780.105	256.387
780.233	258.975
780.362	263.700
780.490	255.863
780.618	253.250
780.746	253.500
780.874	252.687
781.002	254.762
781.130	253.825
781.258	249.250
781.387	252.012
781.515	247.475
781.643	245.600
781.771	254.012
781.899	247.137
782.027	246.937
782.155	244.287
782.283	242.488
782.412	249.812
782.540	249.262
782.668	242.150
782.796	237.050
782.924	237.200
783.052	237.512
783.180	238.725
783.308	235.075
783.437	241.363
783.565	241.312
783.693	240.425
783.821	233.738
783.949	233.625
784.077	233.625
784.205	241.162
784.333	245.025
784.462	228.762
784.590	232.725
784.718	234.325
784.846	221.137
784.974	233.838
785.102	242.012
785.230	230.425
785.358	237.375
785.487	229.325
785.615	230.825
785.743	222.262
785.871	221.937
785.999	227.125
786.127	216.187
786.255	232.488
786.383	229.700
786.512	215.100
786.640	220.588
786.768	225.075
786.896	220.275
787.024	220.387
787.152	214.875
787.280	215.150
787.408	216.187
787.537	215.562
787.665	210.338
787.793	220.187
787.921	214.850
788.049	211.512
788.177	210.950
788.305	208.812
788.433	211.963
788.562	208.838
788.690	208.887
788.818	210.200
788.946	207.275
789.074	204.275
789.202	209.687
789.330	208.300
789.458	206.550
789.587	204.437
789.715	203.925
789.843	207.300
789.971	205.387
790.099	198.713
790.227	201.863
790.355	199.387
790.483	206.887
790.612	199.775
790.740	200.363
790.868	208.762
790.996	195.213
791.124	198.887
791.252	195.887
791.380	199.900
791.508	196.425
791.637	209.912
791.765	190.050
791.893	194.937
792.021	203.275
792.149	191.750
792.277	191.062
792.405	195.687
792.533	201.900
792.662	190.562
792.790	191.025
792.918	202.213
793.046	189.250
793.174	189.675
793.302	189.762
793.430	190.262
793.558	196.350
793.687	187.825
793.815	190.650
793.943	188.512
794.071	186.600
794.199	182.512
794.327	183.450
794.455	206.825
794.583	201.225
794.712	188.463
794.840	183.850
794.968	185.437
795.096	190.012
795.224	178.225
795.352	176.613
795.480	186.113
795.608	178.925
795.737	183.875
795.865	182.425
795.993	176.675
796.121	179.213
796.249	178.275
796.377	180.387
796.505	178.713
796.633	176.400
796.762	175.238
796.890	184.312
797.018	175.713
797.146	173.512
797.274	170.088
797.402	174.963
797.530	174.700
797.658	171.512
797.787	177.637
797.915	168.012
798.043	175.838
798.171	176.437
798.299	168.838
798.427	171.162
798.555	174.225
798.683	163.338
798.812	171.738
798.940	173.338
799.068	172.437
799.196	171.113
799.324	166.012
799.452	170.838
799.580	165.450
799.708	177.037
799.837	160.400
799.965	166.050
800.093	164.225
800.221	165.713
800.349	166.900
800.477	166.225
800.605	165.750
800.733	164.075
800.862	166.062
800.990	176.113
801.118	166.100
801.246	158.500
801.374	159.713
801.502	164.613
801.630	156.675
801.758	160.925
801.887	162.113
802.015	157.963
802.143	160.150
802.271	159.238
802.399	163.662
802.527	164.050
802.655	160.225
802.783	165.662
802.912	160.775
803.040	159.275
803.168	153.125
803.296	151.238
803.424	156.475
803.552	152.637
803.680	155.500
803.808	155.662
803.937	154.250
804.065	155.950
804.193	152.125
804.321	161.200
804.449	155.250
804.577	151.613
804.705	154.637
804.833	154.550
804.962	153.225
805.090	148.650
805.218	157.238
805.346	152.400
805.474	149.863
805.602	165.900
805.730	152.713
805.858	147.762
805.987	158.325
806.115	156.287
806.243	151.863
806.371	148.500
806.499	148.875
806.627	144.738
806.755	152.550
806.883	150.162
807.012	147.300
807.140	151.875
807.268	149.363
807.396	150.863
807.524	145.287
807.652	146.162
807.780	160.125
807.908	142.488
808.037	150.713
808.165	148.800
808.293	147.512
808.421	157.338
808.549	142.338
808.677	139.637
808.805	158.713
808.933	139.975
809.062	145.250
809.190	164.137
809.318	150.000
809.446	142.875
809.574	151.338
809.702	145.400
809.830	138.500
809.958	149.213
810.087	143.687
810.215	150.312
810.343	153.262
810.471	147.287
810.599	138.687
810.727	143.200
810.855	136.238
810.983	144.375
811.112	139.025
811.240	139.700
811.368	144.113
811.496	147.900
811.624	147.262
811.752	138.613
811.880	141.012
812.008	133.912
812.137	142.037
812.265	139.037
812.393	142.338
812.521	141.500
812.649	139.613
812.777	137.875
812.905	143.187
813.033	135.363
813.162	139.262
813.290	137.250
813.418	144.375
813.546	139.325
813.674	135.988
813.802	141.312
813.930	137.825
814.058	131.762
814.187	135.550
814.315	134.412
814.443	137.425
814.571	133.900
814.699	140.100
814.827	137.075
814.955	135.775
815.083	138.812
815.212	135.463
815.340	134.325
815.468	133.225
815.596	135.225
815.724	136.950
815.852	138.762
815.980	130.912
816.108	133.512
816.237	133.738
816.365	139.137
816.493	133.662
816.621	129.488
816.749	129.912
816.877	132.075
817.005	137.037
817.133	130.000
817.262	130.088
817.390	143.875
817.518	129.825
817.646	136.375
817.774	131.787
817.902	133.800
818.030	126.612
818.158	133.200
818.287	137.675
818.415	125.575
818.543	130.300
818.671	140.100
818.799	129.175
818.927	131.600
819.055	128.400
819.183	128.363
819.312	130.450
819.440	136.450
819.568	129.762
819.696	136.325
819.824	131.525
819.952	124.400
820.080	128.613
820.208	127.675
820.337	126.362
820.465	133.512
820.593	125.013
820.721	126.725
820.849	127.900
820.977	127.713
821.105	131.588
821.233	125.737
821.362	133.988
821.490	125.862
821.618	127.987
821.746	127.500
821.874	124.650
822.002	126.437
822.130	129.450
822.258	123.350
822.387	126.737
822.515	124.525
822.643	125.862
822.771	126.525
822.899	125.900
823.027	121.600
823.155	122.900
823.283	125.463
823.412	131.012
823.540	125.375
823.668	142.812
823.796	123.000
823.924	132.175
824.052	131.988
824.180	122.525
824.308	126.588
824.437	127.138
824.565	125.213
824.693	126.275
824.821	124.775
824.949	122.838
825.077	124.787
825.205	131.400
825.333	123.550
825.462	125.600
825.590	119.638
825.718	125.700
825.846	123.062
825.974	128.088
826.102	125.200
826.230	122.312
826.358	122.450
826.487	127.138
826.615	132.912
826.743	120.263
826.871	126.125
826.999	134.012
827.127	126.638
827.255	119.950
827.383	116.800
827.512	125.937
827.640	122.987
827.768	118.513
827.896	120.450
828.024	121.388
828.152	120.950
828.280	119.775
828.408	119.937
828.537	120.812
828.665	122.862
828.793	119.187
828.921	120.162
829.049	122.287
829.177	118.125
829.305	116.062
829.433	119.862
829.562	121.300
829.690	118.350
829.818	121.713
829.946	122.850
830.074	115.175
830.202	125.213
830.330	126.513
830.458	127.562
830.587	118.237
830.715	117.412
830.843	117.963
830.971	116.575
831.099	117.963
831.227	115.000
831.355	116.900
831.483	117.325
831.612	120.013
831.740	119.975
831.868	129.100
831.996	116.025
832.124	119.825
832.252	112.450
832.380	115.187
832.508	118.263
832.637	121.338
832.765	120.138
832.893	125.375
833.021	119.437
833.149	116.600
833.277	118.162
833.405	113.713
833.533	114.513
833.662	116.400
833.790	117.175
833.918	117.338
834.046	121.250
834.174	121.800
834.302	118.400
834.430	116.175
834.558	114.600
834.687	116.150
834.815	116.638
834.943	115.287
835.071	115.237
835.199	119.525
835.327	120.588
835.455	113.237
835.583	114.963
835.712	115.987
835.840	119.000
835.968	116.838
836.096	115.088
836.224	121.763
836.352	114.975
836.480	117.050
836.608	122.400
836.737	112.275
836.865	111.412
836.993	110.550
837.121	113.425
837.249	115.463
837.377	117.638
837.505	119.100
837.633	116.325
837.762	113.450
837.890	119.713
838.018	123.612
838.146	113.362
838.274	116.013
838.402	120.838
838.530	112.425
838.658	111.250
838.787	116.025
838.915	114.675
839.043	115.500
839.171	124.150
839.299	116.525
839.427	114.888
839.555	122.225
839.683	116.537
839.812	110.075
839.940	112.650
840.068	121.888
840.196	113.437
840.324	115.013
840.452	117.000
840.580	119.250
840.708	114.713
840.837	115.338
840.965	113.400
841.093	118.263
841.221	114.787
841.349	123.312
841.477	116.275
841.605	115.175
841.733	114.638
841.862	115.450
841.990	123.513
842.118	114.513
842.246	111.412
842.374	109.362
842.502	112.675
842.630	111.375
842.758	118.912
842.887	114.025
843.015	114.713
843.143	117.350
843.271	114.287
843.399	115.875
843.527	113.513
843.655	111.937
843.783	111.138
843.912	110.312
844.040	114.450
844.168	123.388
844.296	117.400
844.424	116.787
844.552	117.713
844.680	120.325
844.808	117.338
844.937	110.400
845.065	116.463
845.193	115.075
845.321	109.750
845.449	111.662
845.577	112.763
845.705	114.737
845.833	111.412
845.962	113.350
846.090	112.638
846.218	113.475
846.346	116.987
846.474	113.562
846.602	111.300
846.730	112.350
846.858	110.013
846.987	109.475
847.115	111.325
847.243	111.838
847.371	115.750
847.499	113.687
847.627	108.100
847.755	109.412
847.883	114.075
848.012	115.138
848.140	116.475
848.268	111.900
848.396	111.037
848.524	111.437
848.652	108.937
848.780	108.312
848.908	115.850
849.037	111.375
849.165	109.150
849.293	109.463
849.421	116.412
849.549	112.525
849.677	112.950
849.805	119.350
849.933	114.338
850.062	112.225
850.190	110.450
850.318	112.825
850.446	109.750
850.574	108.612
850.702	111.662
850.830	113.713
850.958	119.025
851.087	111.812
851.215	116.575
851.343	112.237
851.471	110.713
851.599	113.100
851.727	113.875
851.855	113.263
851.983	112.562
852.112	112.912
852.240	112.562
852.368	108.737
852.496	109.200
852.624	108.200
852.752	109.138
852.880	111.450
853.008	115.875
853.137	111.200
853.265	109.737
853.393	113.537
853.521	119.750
853.649	118.950
853.777	109.900
853.905	113.500
854.033	115.175
854.162	113.825
854.290	109.013
854.418	108.338
854.546	112.825
854.674	113.250
854.802	109.437
854.930	111.687
855.058	110.050
855.187	106.912
855.315	108.838
855.443	106.812
855.571	107.213
855.699	109.362
855.827	112.888
855.955	110.475
856.083	110.150
856.212	110.838
856.340	111.187
856.468	114.612
856.596	111.500
856.724	111.963
856.852	110.013
856.980	110.325
857.108	113.037
857.237	113.325
857.365	111.250
857.493	107.175
857.621	107.600
857.749	108.763
857.877	113.263
858.005	117.400
858.133	112.612
858.262	108.062
858.390	110.112
858.518	105.700
858.646	111.500
858.774	109.287
858.902	109.963
859.030	109.437
859.158	108.312
859.287	111.400
859.415	110.987
859.543	107.825
859.671	112.850
859.799	112.612
859.927	112.513
860.055	110.513
860.183	108.487
860.312	110.062
860.440	109.138
860.568	115.187
860.696	111.713
860.824	122.000
860.952	111.250
861.080	108.475
861.208	112.062
861.337	111.112
861.465	108.888
861.593	114.550
861.721	110.263
861.849	110.150
861.977	111.225
862.105	108.687
862.233	107.713
862.362	111.450
862.490	108.975
862.618	107.437
862.746	106.713
862.874	109.100
863.002	110.537
863.130	113.412
863.258	111.987
863.387	112.213
863.515	113.425
863.643	108.050
863.771	114.025
863.899	112.162
864.027	108.013
864.155	108.650
864.283	108.975
864.412	109.812
864.540	109.325
864.668	105.775
864.796	107.612
864.924	108.338
865.052	114.025
865.180	108.350
865.308	106.687
865.437	109.750
865.565	112.275
865.693	113.050
865.821	111.050
865.949	108.450
866.077	109.612
866.205	106.800
866.333	110.638
866.462	110.400
866.590	108.612
866.718	109.662
866.846	108.250
866.974	109.263
867.102	110.338
867.230	106.787
867.358	109.850
867.487	110.250
867.615	105.800
867.743	110.287
867.871	110.612
867.999	109.050
868.127	109.075
868.255	118.000
868.383	115.375
868.512	110.138
868.640	112.350
868.768	111.537
868.896	112.388
869.024	115.900
869.152	112.425
869.280	111.700
869.408	109.213
869.537	105.638
869.665	114.325
869.793	107.312
869.921	112.713
870.049	110.650
870.177	107.513
870.305	118.463
870.433	109.575
870.562	109.400
870.690	111.662
870.818	106.763
870.946	109.612
871.074	107.187
871.202	111.437
871.330	109.362
871.458	109.675
871.587	108.875
871.715	110.862
871.843	108.888
871.971	109.175
872.099	106.487
872.227	106.525
872.355	108.187
872.483	108.400
872.612	110.225
872.740	109.775
872.868	107.450
872.996	111.350
873.124	108.525
873.252	109.725
873.380	110.437
873.508	112.888
873.637	108.275
873.765	108.287
873.893	110.700
874.021	111.162
874.149	108.687
874.277	110.125
874.405	115.350
874.533	109.362
874.662	332.187
874.790	118.513
874.918	115.175
875.046	110.650
875.174	111.925
875.302	107.937
875.430	108.862
875.558	107.100
875.687	111.825
875.815	110.900
875.943	110.562
876.071	112.150
876.199	109.737
876.327	113.375
876.455	108.800
876.583	108.263
876.712	109.713
876.840	111.287
876.968	109.487
877.096	110.700
877.224	107.450
877.352	106.300
877.480	106.475
877.608	106.725
877.737	109.350
877.865	109.625
877.993	111.700
878.121	107.775
878.249	110.325
878.377	107.312
878.505	106.900
878.633	110.125
878.762	109.525
878.890	112.062
879.018	107.275
879.146	113.025
879.274	110.562
879.402	111.275
879.530	109.900
879.658	116.575
879.787	111.013
879.915	109.588
880.043	107.800
880.171	108.138
880.299	109.037
880.427	109.537
880.555	113.037
880.683	113.487
880.812	109.200
880.940	110.075
881.068	111.075
881.196	109.713
881.324	109.975
881.452	108.912
881.580	110.388
881.708	110.562
881.837	108.075
881.965	107.700
882.093	108.050
882.221	108.000
882.349	113.112
882.477	117.025
882.605	113.513
882.733	107.125
882.862	110.825
882.990	108.287
883.118	109.700
883.246	109.700
883.374	110.400
883.502	110.687
883.630	108.487
883.758	110.687
883.887	106.312
884.015	107.463
884.143	109.662
884.271	110.850
884.399	107.625
884.527	107.500
884.655	108.550
884.783	109.737
884.912	107.187
885.040	108.025
885.168	109.075
885.296	107.550
885.424	108.888
885.552	113.325
885.680	110.812
885.808	106.800
885.937	109.250
886.065	109.312
886.193	107.925
886.321	108.250
886.449	108.425
886.577	108.062
886.705	109.537
886.833	110.400
886.962	108.850
887.090	106.713
887.218	108.525
887.346	113.963
887.474	116.687
887.602	112.750
887.730	109.312
887.858	109.037
887.987	108.975
888.115	118.713
888.243	112.450
888.371	111.425
888.499	111.375
888.627	110.912
888.755	110.437
888.883	107.750
889.012	108.325
889.140	111.987
889.268	118.675
889.396	113.412
889.524	108.213
889.652	105.375
889.780	108.562
889.908	108.487
890.037	109.875
890.165	109.700
890.293	112.050
890.421	111.325
890.549	108.975
890.677	109.375
890.805	106.838
890.933	110.362
891.062	111.225
891.190	109.338
891.318	115.150
891.446	112.625
891.574	111.912
891.702	108.525
891.830	110.638
891.958	110.838
892.087	112.463
892.215	111.175
892.343	110.125
892.471	110.975
892.599	112.062
892.727	114.412
892.855	112.350
892.983	112.175
893.112	108.263
893.240	111.300
893.368	110.088
893.496	112.375
893.624	112.963
893.752	110.325
893.880	109.425
894.008	108.175
894.137	111.875
894.265	115.700
894.393	114.200
894.521	111.687
894.649	110.612
894.777	107.287
894.905	109.100
895.033	118.987
895.162	113.812
895.290	113.900
895.418	109.975
895.546	114.713
895.674	115.937
895.802	112.075
895.930	108.338
896.058	106.537
896.187	108.600
896.315	111.213
896.443	113.237
896.571	111.650
896.699	110.275
896.827	108.388
896.955	110.825
897.083	109.537
897.212	109.013
897.340	104.650
897.468	106.112
897.596	107.138
897.724	109.300
897.852	116.325
897.980	108.963
898.108	109.325
898.237	108.513
898.365	106.713
898.493	110.112
898.621	108.825
898.749	106.675
898.877	108.875
899.005	108.325
899.133	108.312
899.262	110.537
899.390	109.725
899.518	111.838
899.646	111.138
899.774	116.100
899.902	123.450
900.030	111.138
900.158	109.425
900.287	112.088
900.415	107.650
900.543	108.037
900.671	112.525
900.799	109.900
900.927	110.787
901.055	109.862
901.183	110.750
901.312	108.550
901.440	113.787
901.568	113.888
901.696	112.162
901.824	112.350
901.952	118.550
902.080	113.300
902.208	111.025
902.337	109.675
902.465	110.612
902.593	111.775
902.721	112.412
902.849	111.537
902.977	108.925
903.105	115.487
903.233	119.062
903.362	113.662
903.490	113.825
903.618	109.062
903.746	115.237
903.874	114.875
904.002	110.250
904.130	113.537
904.258	113.338
904.387	111.737
904.515	108.687
904.643	107.362
904.771	109.850
904.899	111.838
905.027	112.912
905.155	109.900
905.283	113.325
905.412	113.237
905.540	109.963
905.668	106.812
905.796	104.175
905.924	107.725
906.052	109.213
906.180	111.075
906.308	110.437
906.437	115.138
906.565	114.125
906.693	112.175
906.821	109.812
906.949	110.412
907.077	115.175
907.205	115.700
907.333	114.000
907.462	112.775
907.590	113.875
907.718	116.937
907.846	112.225
907.974	111.963
908.102	111.013
908.230	112.437
908.358	119.687
908.487	114.812
908.615	112.987
908.743	113.275
908.871	113.725
908.999	112.787
909.127	111.925
909.255	109.850
909.383	111.213
909.512	115.937
909.640	113.025
909.768	113.025
909.896	124.787
910.024	116.662
910.152	114.687
910.280	122.987
910.408	112.875
910.537	115.175
910.665	120.088
910.793	116.237
910.921	120.362
911.049	115.975
911.177	112.638
911.305	117.700
911.433	115.888
911.562	113.362
911.690	113.750
911.818	124.487
911.946	126.912
912.074	115.763
912.202	115.437
912.330	114.175
912.458	114.862
912.587	118.888
912.715	116.950
912.843	117.013
912.971	118.487
913.099	120.650
913.227	118.450
913.355	119.162
913.483	119.650
913.612	117.013
913.740	130.162
913.868	121.588
