sample5_PS_at_750.00nm_cut_at_1008.00Y_01.dat
15.05.2023
11:01:42
cut middle at Y: 1008.00
top cursor: 1048 down cursor: 968 mean of: 80 lines , 2560 datapoints
wavelength(nm)	intensity[arb. units]
585.996	1366.237
586.124	1338.825
586.252	1332.550
586.380	1325.900
586.508	1326.838
586.637	1336.850
586.765	1338.562
586.893	1339.975
587.021	1348.550
587.149	1354.750
587.277	1350.075
587.405	1356.875
587.533	1335.175
587.662	1357.375
587.790	1363.875
587.918	1356.075
588.046	1371.550
588.174	1362.737
588.302	1386.312
588.430	1364.625
588.558	1382.825
588.687	1371.700
588.815	1405.713
588.943	1385.275
589.071	1380.187
589.199	1394.912
589.327	1390.900
589.455	1375.338
589.583	1385.687
589.712	1400.412
589.840	1396.050
589.968	1379.513
590.096	1401.838
590.224	1402.300
590.352	1392.850
590.480	1400.912
590.608	1396.013
590.737	1394.037
590.865	1393.937
590.993	1407.987
591.121	1396.713
591.249	1418.862
591.377	1410.287
591.505	1404.100
591.633	1407.612
591.762	1411.912
591.890	1428.487
592.018	1416.125
592.146	1420.112
592.274	1434.463
592.402	1420.200
592.530	1427.625
592.658	1430.375
592.787	1433.450
592.915	1423.400
593.043	1450.750
593.171	1443.275
593.299	1468.700
593.427	1449.088
593.555	1452.088
593.683	1446.175
593.812	1449.150
593.940	1479.850
594.068	1472.200
594.196	1495.763
594.324	1473.575
594.452	1503.775
594.580	1511.175
594.708	1496.312
594.837	1505.812
594.965	1510.763
595.093	1516.412
595.221	1522.125
595.349	1532.713
595.477	1526.963
595.605	1525.862
595.733	1558.825
595.862	1541.213
595.990	1546.100
596.118	1558.400
596.246	1556.050
596.374	1568.475
596.502	1591.625
596.630	1584.162
596.758	1592.875
596.887	1588.562
597.015	1616.088
597.143	1579.437
597.271	1603.925
597.399	1616.825
597.527	1626.937
597.655	1616.200
597.783	1634.588
597.912	1605.537
598.040	1618.350
598.168	1629.950
598.296	1634.037
598.424	1634.638
598.552	1626.763
598.680	1627.975
598.808	1618.600
598.937	1644.925
599.065	1632.312
599.193	1639.600
599.321	1620.125
599.449	1665.175
599.577	1637.987
599.705	1634.162
599.833	1634.550
599.962	1628.425
600.090	1633.800
600.218	1655.888
600.346	1661.975
600.474	1661.000
600.602	1668.888
600.730	1674.150
600.858	1686.513
600.987	1668.412
601.115	1679.388
601.243	1678.625
601.371	1699.213
601.499	1696.150
601.627	1687.825
601.755	1723.775
601.883	1717.050
602.012	1733.150
602.140	1721.800
602.268	1735.675
602.396	1743.350
602.524	1744.200
602.652	1751.937
602.780	1761.963
602.908	1774.937
603.037	1782.100
603.165	1805.500
603.293	1806.175
603.421	1822.750
603.549	1806.963
603.677	1856.862
603.805	1831.150
603.933	1862.500
604.062	1854.888
604.190	1878.487
604.318	1869.937
604.446	1901.050
604.574	1896.737
604.702	1907.487
604.830	1918.237
604.958	1934.713
605.087	1961.088
605.215	1955.713
605.343	1966.550
605.471	1983.862
605.599	1998.088
605.727	1996.050
605.855	2017.162
605.983	1997.662
606.112	2035.050
606.240	2043.287
606.368	2062.650
606.496	2072.675
606.624	2048.887
606.752	2074.375
606.880	2071.762
607.008	2108.312
607.137	2097.600
607.265	2121.800
607.393	2132.450
607.521	2136.875
607.649	2123.375
607.777	2112.000
607.905	2138.950
608.033	2150.037
608.162	2153.762
608.290	2142.562
608.418	2178.525
608.546	2155.488
608.674	2197.037
608.802	2166.900
608.930	2190.300
609.058	2187.500
609.187	2183.075
609.315	2202.075
609.443	2199.213
609.571	2228.725
609.699	2218.762
609.827	2210.213
609.955	2226.300
610.083	2224.975
610.212	2227.338
610.340	2215.812
610.468	2251.588
610.596	2273.400
610.724	2249.637
610.852	2263.937
610.980	2261.850
611.108	2270.700
611.237	2259.012
611.365	2274.713
611.493	2263.650
611.621	2298.988
611.749	2316.175
611.877	2319.363
612.005	2308.762
612.133	2309.338
612.262	2318.350
612.390	2336.437
612.518	2347.562
612.646	2358.850
612.774	2349.750
612.902	2371.762
613.030	2376.613
613.158	2409.550
613.287	2436.912
613.415	2410.662
613.543	2435.062
613.671	2425.162
613.799	2453.050
613.927	2446.387
614.055	2444.662
614.183	2526.175
614.312	2470.387
614.440	2515.262
614.568	2479.025
614.696	2494.012
614.824	2576.437
614.952	2530.863
615.080	2526.613
615.208	2569.762
615.337	2558.762
615.465	2565.000
615.593	2581.125
615.721	2632.625
615.849	2655.213
615.977	2646.475
616.105	2661.300
616.233	2634.562
616.362	2715.525
616.490	2641.562
616.618	2662.012
616.746	2717.588
616.874	2770.100
617.002	2719.425
617.130	2781.200
617.258	2863.662
617.387	2764.425
617.515	2775.475
617.643	2805.775
617.771	2836.825
617.899	2834.350
618.027	2797.050
618.155	2920.437
618.283	2837.738
618.412	2836.162
618.540	2928.825
618.668	2883.412
618.796	2888.762
618.924	3015.425
619.052	2909.500
619.180	2904.887
619.308	2953.912
619.437	2960.725
619.565	2961.550
619.693	2934.125
619.821	2983.125
619.949	2972.187
620.077	3031.613
620.205	3032.338
620.333	3033.537
620.462	3079.750
620.590	3116.800
620.718	3042.912
620.846	3159.637
620.974	3151.838
621.102	3112.812
621.230	3056.625
621.358	3225.012
621.487	3103.088
621.615	3131.662
621.743	3175.562
621.871	3160.137
621.999	3226.537
622.127	3154.900
622.255	3212.387
622.383	3188.375
622.512	3200.238
622.640	3339.963
622.768	3173.950
622.896	3205.088
623.024	3209.287
623.152	3313.238
623.280	3306.950
623.408	3238.387
623.537	3272.412
623.665	3252.300
623.793	3317.812
623.921	3258.637
624.049	3280.338
624.177	3300.613
624.305	3351.713
624.433	3347.062
624.562	3333.950
624.690	3360.700
624.818	3419.512
624.946	3529.187
625.074	3413.450
625.202	3367.750
625.330	3348.250
625.458	3463.475
625.587	3397.187
625.715	3481.750
625.843	3546.200
625.971	3455.512
626.099	3443.762
626.227	3454.575
626.355	3443.162
626.483	3558.287
626.612	3484.213
626.740	3477.500
626.868	3524.675
626.996	3485.512
627.124	3501.062
627.252	3500.687
627.380	3575.400
627.508	3567.812
627.637	3524.550
627.765	3569.488
627.893	3590.637
628.021	3581.713
628.149	3635.300
628.277	3646.900
628.405	3717.738
628.533	3614.150
628.662	3708.812
628.790	3659.900
628.918	3678.637
629.046	3691.875
629.174	3703.262
629.302	3824.300
629.430	3718.863
629.558	3764.037
629.687	3758.950
629.815	3805.463
629.943	3822.075
630.071	3820.025
630.199	3854.963
630.327	3861.412
630.455	3819.537
630.583	3943.863
630.712	3903.925
630.840	3911.525
630.968	3986.213
631.096	3924.200
631.224	3924.000
631.352	3955.500
631.480	4003.225
631.608	3971.250
631.737	4093.363
631.865	4198.925
631.993	4032.687
632.121	4157.775
632.249	4151.137
632.377	4153.712
632.505	4162.950
632.633	4077.500
632.762	4158.650
632.890	4260.600
633.018	4103.887
633.146	4214.575
633.274	4216.562
633.402	4217.788
633.530	4151.212
633.658	4334.900
633.787	4195.100
633.915	4295.913
634.043	4261.050
634.171	4248.100
634.299	4256.687
634.427	4375.863
634.555	4290.125
634.683	4275.163
634.812	4267.800
634.940	4304.937
635.068	4244.087
635.196	4327.137
635.324	4331.600
635.452	4403.238
635.580	4316.187
635.708	4334.400
635.837	4387.538
635.965	4400.937
636.093	4354.538
636.221	4318.587
636.349	4456.225
636.477	4316.050
636.605	4509.525
636.733	4307.000
636.862	4372.225
636.990	4382.462
637.118	4462.725
637.246	4409.488
637.374	4363.125
637.502	4377.238
637.630	4345.825
637.758	4385.550
637.887	4369.425
638.015	4370.700
638.143	4358.850
638.271	4394.400
638.399	4380.637
638.527	4361.800
638.655	4344.250
638.783	4531.825
638.912	4406.337
639.040	4395.400
639.168	4445.913
639.296	4392.212
639.424	4517.587
639.552	4379.350
639.680	4432.750
639.808	4453.200
639.937	4379.475
640.065	4388.650
640.193	4485.725
640.321	4381.400
640.449	4452.025
640.577	4519.312
640.705	4446.450
640.833	4542.775
640.962	4402.000
641.090	4398.475
641.218	4422.225
641.346	4438.325
641.474	4488.163
641.602	4442.137
641.730	4435.500
641.858	4448.113
641.987	4509.262
642.115	4433.887
642.243	4528.700
642.371	4500.050
642.499	4493.312
642.627	4517.462
642.755	4579.837
642.883	4587.988
643.012	4542.625
643.140	4465.200
643.268	4539.587
643.396	4537.350
643.524	4675.250
643.652	4526.663
643.780	4547.925
643.908	4543.375
644.037	4727.962
644.165	4561.837
644.293	4587.425
644.421	4548.413
644.549	4667.975
644.677	4588.038
644.805	4653.187
644.933	4559.875
645.062	4601.812
645.190	4625.937
645.318	4695.000
645.446	4636.325
645.574	4658.887
645.702	4624.125
645.830	4778.400
645.958	4619.062
646.087	4814.262
646.215	4635.262
646.343	4805.887
646.471	4717.500
646.599	4722.775
646.727	4643.325
646.855	4693.988
646.983	4684.387
647.112	4624.113
647.240	4833.337
647.368	4678.163
647.496	4729.538
647.624	4640.200
647.752	4636.312
647.880	4653.575
648.008	4650.163
648.137	4654.637
648.265	4609.488
648.393	4650.500
648.521	4664.738
648.649	4664.712
648.777	4656.913
648.905	4644.725
649.033	4662.988
649.162	4654.462
649.290	4631.613
649.418	4691.125
649.546	4653.937
649.674	4711.012
649.802	4628.675
649.930	4772.863
650.058	4578.712
650.187	4625.163
650.315	4584.350
650.443	4661.025
650.571	4591.937
650.699	4566.238
650.827	4534.375
650.955	4585.875
651.083	4560.625
651.212	4623.988
651.340	4631.500
651.468	4566.275
651.596	4554.200
651.724	4541.725
651.852	4528.425
651.980	4481.350
652.108	4612.163
652.237	4539.913
652.365	4619.712
652.493	4469.262
652.621	4473.400
652.749	4547.387
652.877	4437.613
653.005	4504.000
653.133	4426.225
653.262	4488.050
653.390	4411.512
653.518	4542.113
653.646	4424.137
653.774	4598.238
653.902	4442.762
654.030	4366.100
654.158	4387.575
654.287	4364.113
654.415	4417.625
654.543	4401.387
654.671	4446.288
654.799	4376.225
654.927	4337.050
655.055	4327.113
655.183	4343.262
655.312	4313.050
655.440	4350.337
655.568	4302.275
655.696	4384.875
655.824	4401.238
655.952	4288.887
656.080	4240.700
656.208	4425.750
656.337	4279.962
656.465	4270.762
656.593	4308.988
656.721	4243.450
656.849	4304.163
656.977	4223.937
657.105	4219.288
657.233	4179.250
657.362	4192.750
657.490	4185.625
657.618	4175.238
657.746	4151.387
657.874	4153.600
658.002	4117.000
658.130	4145.812
658.258	4101.700
658.387	4123.400
658.515	4098.700
658.643	4143.350
658.771	4095.250
658.899	4072.225
659.027	4092.275
659.155	4074.275
659.283	4242.788
659.412	4053.300
659.540	4149.100
659.668	4027.175
659.796	4046.137
659.924	4081.713
660.052	4014.450
660.180	4042.187
660.308	4012.088
660.437	4012.463
660.565	3984.412
660.693	3966.762
660.821	3949.325
660.949	3958.537
661.077	3943.525
661.205	3927.125
661.333	3895.262
661.462	4005.162
661.590	3927.338
661.718	4080.000
661.846	3991.912
661.974	4039.900
662.102	3912.562
662.230	3896.775
662.358	3872.550
662.487	3862.812
662.615	3823.025
662.743	3799.162
662.871	3812.437
662.999	3799.662
663.127	3806.713
663.255	3886.887
663.383	3876.225
663.512	3762.175
663.640	3808.137
663.768	3733.537
663.896	3767.937
664.024	3783.488
664.152	3753.387
664.280	3763.387
664.408	3737.287
664.537	3786.500
664.665	3667.300
664.793	3653.287
664.921	3678.012
665.049	3712.787
665.177	3702.000
665.305	3691.838
665.433	3664.175
665.562	3631.338
665.690	3664.187
665.818	3819.662
665.946	3653.050
666.074	3611.287
666.202	3615.125
666.330	3645.387
666.458	3634.900
666.587	3549.475
666.715	3590.175
666.843	3543.725
666.971	3518.925
667.099	3585.088
667.227	3542.650
667.355	3565.950
667.483	3542.825
667.612	3538.175
667.740	3545.525
667.868	3596.125
667.996	3515.350
668.124	3487.512
668.252	3477.650
668.380	3461.687
668.508	3480.725
668.637	3457.700
668.765	3443.900
668.893	3474.912
669.021	3421.150
669.149	3484.875
669.277	3478.900
669.405	3387.725
669.533	3393.887
669.662	3655.300
669.790	3374.475
669.918	3460.588
670.046	3358.225
670.174	3430.950
670.302	3416.100
670.430	3375.437
670.558	3408.050
670.687	3318.225
670.815	3478.000
670.943	3269.675
671.071	3280.187
671.199	3313.887
671.327	3266.963
671.455	3284.338
671.583	3251.975
671.712	3405.850
671.840	3244.912
671.968	3215.137
672.096	3207.588
672.224	3203.475
672.352	3356.000
672.480	3188.325
672.608	3154.000
672.737	3149.963
672.865	3338.537
672.993	3149.350
673.121	3098.350
673.249	3106.238
673.377	3078.925
673.505	3068.550
673.633	3075.800
673.762	3027.050
673.890	3057.450
674.018	3271.012
674.146	3048.838
674.274	3036.838
674.402	3210.025
674.530	3031.075
674.658	3023.613
674.787	2953.125
674.915	2940.262
675.043	3005.512
675.171	2987.275
675.299	2914.025
675.427	2959.512
675.555	2888.338
675.683	2894.525
675.812	2895.450
675.940	2878.863
676.068	2892.425
676.196	2846.350
676.324	2883.125
676.452	2882.600
676.580	2847.975
676.708	2856.637
676.837	2900.775
676.965	2787.187
677.093	2790.900
677.221	2768.050
677.349	2797.800
677.477	2837.700
677.605	2765.425
677.733	2791.400
677.862	2699.175
677.990	2708.613
678.118	2680.125
678.246	2729.162
678.374	2694.325
678.502	2657.363
678.630	2630.162
678.758	2645.800
678.887	2666.562
679.015	2629.875
679.143	2626.775
679.271	2632.637
679.399	2625.200
679.527	2619.125
679.655	2594.950
679.783	2606.012
679.912	2603.125
680.040	2600.262
680.168	2579.775
680.296	2562.275
680.424	2553.525
680.552	2553.750
680.680	2592.863
680.808	2534.700
680.937	2533.613
681.065	2531.887
681.193	2531.675
681.321	2531.825
681.449	2496.387
681.577	2490.963
681.705	2500.037
681.833	2479.000
681.962	2458.275
682.090	2519.287
682.218	2441.750
682.346	2432.713
682.474	2450.787
682.602	2460.687
682.730	2447.725
682.858	2405.625
682.987	2434.488
683.115	2401.687
683.243	2408.637
683.371	2394.588
683.499	2386.275
683.627	2408.550
683.755	2379.113
683.883	2379.075
684.012	2354.025
684.140	2355.475
684.268	2341.700
684.396	2348.338
684.524	2352.262
684.652	2356.912
684.780	2363.725
684.908	2319.150
685.037	2317.425
685.165	2328.012
685.293	2323.500
685.421	2310.800
685.549	2289.975
685.677	2293.863
685.805	2287.912
685.933	2295.588
686.062	2269.800
686.190	2263.537
686.318	2276.512
686.446	2264.937
686.574	2248.000
686.702	2266.812
686.830	2261.050
686.958	2227.363
687.087	2205.412
687.215	2202.287
687.343	2219.425
687.471	2204.600
687.599	2182.075
687.727	2204.787
687.855	2202.988
687.983	2194.275
688.112	2191.975
688.240	2158.050
688.368	2157.075
688.496	2177.325
688.624	2160.562
688.752	2139.988
688.880	2141.912
689.008	2122.000
689.137	2136.450
689.265	2125.838
689.393	2107.787
689.521	2097.925
689.649	2111.512
689.777	2091.575
689.905	2083.287
690.033	2092.338
690.162	2077.250
690.290	2062.825
690.418	2058.175
690.546	2089.537
690.674	2073.150
690.802	2046.912
690.930	2033.812
691.058	2028.175
691.187	2006.575
691.315	2031.088
691.443	2015.725
691.571	2011.650
691.699	1987.437
691.827	1998.875
691.955	1980.325
692.083	1971.925
692.212	1962.875
692.340	1989.588
692.468	1972.463
692.596	1935.562
692.724	1946.513
692.852	1927.025
692.980	1931.100
693.108	1914.463
693.237	1914.900
693.365	1900.888
693.493	1892.750
693.621	1884.037
693.749	1870.237
693.877	1866.975
694.005	1855.250
694.133	1874.350
694.262	1849.338
694.390	1844.850
694.518	1826.338
694.646	1822.487
694.774	1822.675
694.902	1817.937
695.030	1827.875
695.158	1801.225
695.287	1811.100
695.415	1780.838
695.543	1777.888
695.671	1762.425
695.799	1752.687
695.927	1751.237
696.055	1757.562
696.183	1779.375
696.312	1744.450
696.440	1736.937
696.568	1728.175
696.696	1710.400
696.824	1708.213
696.952	1701.525
697.080	1686.588
697.208	1709.275
697.337	1665.225
697.465	1665.550
697.593	1664.037
697.721	1668.162
697.849	1652.500
697.977	1643.400
698.105	1656.225
698.233	1630.388
698.362	1629.312
698.490	1625.925
698.618	1627.638
698.746	1623.550
698.874	1621.900
699.002	1606.050
699.130	1603.687
699.258	1604.575
699.387	1579.600
699.515	1574.875
699.643	1581.312
699.771	1591.088
699.899	1570.025
700.027	1579.375
700.155	1565.875
700.283	1548.675
700.412	1546.900
700.540	1538.975
700.668	1524.800
700.796	1531.662
700.924	1519.687
701.052	1521.150
701.180	1513.388
701.308	1504.338
701.437	1487.675
701.565	1486.050
701.693	1489.825
701.821	1506.150
701.949	1479.312
702.077	1459.075
702.205	1462.450
702.333	1471.150
702.462	1461.425
702.590	1446.325
702.718	1460.950
702.846	1432.650
702.974	1441.463
703.102	1436.937
703.230	1437.850
703.358	1411.175
703.487	1395.725
703.615	1402.950
703.743	1388.850
703.871	1412.138
703.999	1378.125
704.127	1377.662
704.255	1368.775
704.383	1377.088
704.512	1359.125
704.640	1355.112
704.768	1345.812
704.896	1357.875
705.024	1350.062
705.152	1341.612
705.280	1334.912
705.408	1318.600
705.537	1317.713
705.665	1319.550
705.793	1307.987
705.921	1312.875
706.049	1317.812
706.177	1291.125
706.305	1293.937
706.433	1296.562
706.562	1287.388
706.690	1280.650
706.818	1263.725
706.946	1272.975
707.074	1251.513
707.202	1257.150
707.330	1249.550
707.458	1247.900
707.587	1233.675
707.715	1237.550
707.843	1225.888
707.971	1231.300
708.099	1215.763
708.227	1195.412
708.355	1204.338
708.483	1205.437
708.612	1208.537
708.740	1200.388
708.868	1186.700
708.996	1194.650
709.124	1201.062
709.252	1170.600
709.380	1179.888
709.508	1160.500
709.637	1162.425
709.765	1155.937
709.893	1148.775
710.021	1161.650
710.149	1148.325
710.277	1155.662
710.405	1143.013
710.533	1129.463
710.662	1130.513
710.790	1133.250
710.918	1116.763
711.046	1121.850
711.174	1130.000
711.302	1107.975
711.430	1106.588
711.558	1113.338
711.687	1108.475
711.815	1102.600
711.943	1099.325
712.071	1089.237
712.199	1084.500
712.327	1072.950
712.455	1078.037
712.583	1073.562
712.712	1090.812
712.840	1075.025
712.968	1070.400
713.096	1075.000
713.224	1063.875
713.352	1053.550
713.480	1047.000
713.608	1045.575
713.737	1033.388
713.865	1038.150
713.993	1034.162
714.121	1035.888
714.249	1030.237
714.377	1024.475
714.505	1027.362
714.633	1014.837
714.762	1013.600
714.890	1017.513
715.018	1005.725
715.146	997.725
715.274	998.737
715.402	992.812
715.530	1003.612
715.658	984.900
715.787	989.413
715.915	987.875
716.043	981.612
716.171	988.663
716.299	994.437
716.427	968.962
716.555	969.725
716.683	962.812
716.812	962.675
716.940	970.462
717.068	954.950
717.196	947.937
717.324	944.800
717.452	944.562
717.580	944.913
717.708	935.138
717.837	942.500
717.965	935.562
718.093	931.562
718.221	926.225
718.349	922.937
718.477	923.275
718.605	914.725
718.733	913.263
718.862	905.050
718.990	903.425
719.118	904.475
719.246	897.175
719.374	895.913
719.502	911.075
719.630	901.638
719.758	888.437
719.887	890.300
720.015	892.888
720.143	884.375
720.271	879.587
720.399	871.825
720.527	873.650
720.655	869.000
720.783	870.800
720.912	863.237
721.040	871.212
721.168	855.325
721.296	856.175
721.424	851.038
721.552	850.638
721.680	846.038
721.808	848.187
721.937	846.263
722.065	829.475
722.193	824.138
722.321	841.587
722.449	817.100
722.577	833.062
722.705	813.763
722.833	802.900
722.962	817.700
723.090	806.237
723.218	808.388
723.346	799.450
723.474	808.475
723.602	807.875
723.730	789.075
723.858	800.062
723.987	796.312
724.115	791.050
724.243	781.062
724.371	778.437
724.499	787.650
724.627	780.712
724.755	773.513
724.883	773.325
725.012	770.050
725.140	761.950
725.268	765.362
725.396	762.200
725.524	750.700
725.652	753.025
725.780	749.275
725.908	744.513
726.037	747.900
726.165	740.538
726.293	736.075
726.421	729.550
726.549	737.275
726.677	722.638
726.805	729.650
726.933	725.375
727.062	716.362
727.190	717.150
727.318	716.288
727.446	719.237
727.574	716.375
727.702	715.187
727.830	699.163
727.958	703.737
728.087	704.737
728.215	702.388
728.343	689.962
728.471	698.937
728.599	682.700
728.727	688.263
728.855	689.525
728.983	678.475
729.112	677.150
729.240	672.400
729.368	667.763
729.496	667.625
729.624	674.500
729.752	663.062
729.880	670.337
730.008	673.862
730.137	656.638
730.265	653.237
730.393	652.325
730.521	650.575
730.649	649.538
730.777	648.450
730.905	644.763
731.033	645.612
731.162	639.913
731.290	648.750
731.418	638.538
731.546	656.163
731.674	625.425
731.802	637.175
731.930	642.362
732.058	630.875
732.187	631.700
732.315	622.500
732.443	623.050
732.571	611.312
732.699	606.913
732.827	609.675
732.955	609.750
733.083	595.250
733.212	604.288
733.340	602.250
733.468	602.638
733.596	597.300
733.724	593.212
733.852	599.400
733.980	589.275
734.108	592.712
734.237	602.413
734.365	588.375
734.493	593.712
734.621	582.538
734.749	591.400
734.877	578.288
735.005	579.025
735.133	575.725
735.262	579.300
735.390	575.763
735.518	562.375
735.646	554.450
735.774	563.775
735.902	564.700
736.030	564.425
736.158	567.725
736.287	560.250
736.415	563.237
736.543	555.788
736.671	554.450
736.799	543.225
736.927	562.587
737.055	551.562
737.183	549.625
737.312	544.187
737.440	557.600
737.568	561.663
737.696	547.312
737.824	544.987
737.952	551.625
738.080	539.775
738.208	534.500
738.337	527.350
738.465	536.737
738.593	529.425
738.721	517.675
738.849	524.687
738.977	531.413
739.105	520.800
739.233	514.112
739.362	516.500
739.490	511.488
739.618	508.800
739.746	516.288
739.874	528.612
740.002	513.250
740.130	507.075
740.258	509.025
740.387	500.562
740.515	497.775
740.643	498.925
740.771	507.825
740.899	499.312
741.027	494.988
741.155	499.238
741.283	487.225
741.412	489.137
741.540	481.387
741.668	488.762
741.796	480.900
741.924	490.462
742.052	482.700
742.180	482.850
742.308	479.575
742.437	477.312
742.565	480.875
742.693	476.250
742.821	472.262
742.949	471.400
743.077	474.937
743.205	473.788
743.333	469.937
743.462	465.325
743.590	466.800
743.718	454.288
743.846	459.337
743.974	461.750
744.102	450.538
744.230	458.225
744.358	448.200
744.487	461.550
744.615	446.950
744.743	451.825
744.871	439.625
744.999	442.887
745.127	434.950
745.255	438.625
745.383	442.512
745.512	443.075
745.640	430.762
745.768	426.637
745.896	432.262
746.024	436.038
746.152	426.437
746.280	425.837
746.408	424.887
746.537	428.675
746.665	424.587
746.793	425.238
746.921	425.625
747.049	421.875
747.177	419.900
747.305	411.587
747.433	420.187
747.562	411.613
747.690	405.475
747.818	411.238
747.946	412.775
748.074	422.575
748.202	410.913
748.330	403.163
748.458	407.212
748.587	401.225
748.715	393.762
748.843	396.900
748.971	392.887
749.099	388.788
749.227	393.312
749.355	384.113
749.483	385.462
749.612	382.975
749.740	385.288
749.868	386.625
749.996	382.113
750.124	389.437
750.252	376.587
750.380	383.225
750.508	375.562
750.637	371.400
750.765	376.900
750.893	370.300
751.021	370.337
751.149	365.975
751.277	374.325
751.405	372.625
751.533	377.788
751.662	365.300
751.790	381.500
751.918	375.038
752.046	359.350
752.174	353.437
752.302	359.062
752.430	363.863
752.558	355.125
752.687	355.800
752.815	363.400
752.943	352.712
753.071	342.175
753.199	344.988
753.327	352.462
753.455	346.212
753.583	337.437
753.712	343.900
753.840	334.962
753.968	340.075
754.096	332.637
754.224	333.725
754.352	332.600
754.480	332.812
754.608	323.875
754.737	326.925
754.865	332.712
754.993	331.375
755.121	322.687
755.249	337.675
755.377	324.087
755.505	323.850
755.633	336.962
755.762	315.625
755.890	333.512
756.018	326.050
756.146	314.425
756.274	315.312
756.402	315.675
756.530	316.850
756.658	320.538
756.787	307.600
756.915	297.125
757.043	307.413
757.171	308.275
757.299	308.937
757.427	300.675
757.555	303.650
757.683	309.937
757.812	300.100
757.940	303.788
758.068	299.050
758.196	297.363
758.324	295.125
758.452	289.550
758.580	290.750
758.708	292.425
758.837	291.775
758.965	303.562
759.093	290.788
759.221	284.825
759.349	285.375
759.477	283.687
759.605	280.812
759.733	279.113
759.862	288.663
759.990	280.937
760.118	284.587
760.246	270.625
760.374	272.437
760.502	277.825
760.630	272.800
760.758	267.687
760.887	271.962
761.015	271.312
761.143	274.038
761.271	267.500
761.399	265.200
761.527	269.113
761.655	259.950
761.783	266.113
761.912	258.288
762.040	268.812
762.168	262.462
762.296	263.475
762.424	256.625
762.552	255.662
762.680	260.187
762.808	256.087
762.937	260.325
763.065	255.562
763.193	259.875
763.321	254.825
763.449	242.125
763.577	243.713
763.705	251.675
763.833	270.262
763.962	243.500
764.090	245.363
764.218	244.375
764.346	242.900
764.474	240.738
764.602	244.925
764.730	238.625
764.858	241.675
764.987	244.600
765.115	244.838
765.243	247.200
765.371	233.525
765.499	230.287
765.627	227.975
765.755	231.812
765.883	232.275
766.012	229.175
766.140	229.875
766.268	232.325
766.396	224.838
766.524	226.000
766.652	228.488
766.780	222.725
766.908	224.725
767.037	224.637
767.165	222.175
767.293	226.475
767.421	219.250
767.549	216.187
767.677	220.088
767.805	213.125
767.933	222.350
768.062	217.425
768.190	213.875
768.318	216.275
768.446	227.325
768.574	219.925
768.702	217.363
768.830	214.900
768.958	213.175
769.087	217.187
769.215	216.988
769.343	207.450
769.471	214.075
769.599	210.100
769.727	205.713
769.855	212.450
769.983	205.512
770.112	208.375
770.240	206.725
770.368	209.100
770.496	201.887
770.624	201.262
770.752	205.875
770.880	219.100
771.008	201.900
771.137	201.025
771.265	206.550
771.393	201.287
771.521	201.312
771.649	200.150
771.777	199.550
771.905	201.675
772.033	200.325
772.162	201.600
772.290	197.850
772.418	205.588
772.546	193.600
772.674	195.213
772.802	196.213
772.930	200.137
773.058	193.488
773.187	195.012
773.315	196.137
773.443	192.725
773.571	192.450
773.699	186.588
773.827	188.662
773.955	193.500
774.083	201.075
774.212	186.588
774.340	187.525
774.468	190.650
774.596	190.175
774.724	194.412
774.852	177.825
774.980	188.750
775.108	183.275
775.237	182.613
775.365	182.062
775.493	180.300
775.621	183.488
775.749	180.213
775.877	188.012
776.005	179.963
776.133	186.875
776.262	186.338
776.390	176.162
776.518	188.900
776.646	175.825
776.774	177.550
776.902	185.787
777.030	177.838
777.158	181.675
777.287	177.375
777.415	175.675
777.543	174.200
777.671	174.238
777.799	172.400
777.927	177.637
778.055	178.838
778.183	178.187
778.312	167.863
778.440	171.213
778.568	176.937
778.696	169.500
778.824	176.162
778.952	173.662
779.080	172.687
779.208	176.412
779.337	175.113
779.465	173.687
779.593	171.100
779.721	177.287
779.849	169.637
779.977	169.012
780.105	166.000
780.233	167.412
780.362	173.925
780.490	170.637
780.618	162.575
780.746	169.450
780.874	161.125
781.002	163.825
781.130	165.325
781.258	165.037
781.387	167.863
781.515	163.437
781.643	164.312
781.771	169.275
781.899	163.300
782.027	164.800
782.155	162.875
782.283	156.637
782.412	162.738
782.540	164.262
782.668	162.325
782.796	154.400
782.924	162.325
783.052	153.250
783.180	163.400
783.308	157.412
783.437	158.738
783.565	163.062
783.693	160.725
783.821	161.150
783.949	155.650
784.077	157.963
784.205	160.637
784.333	168.150
784.462	152.775
784.590	161.437
784.718	156.525
784.846	150.000
784.974	159.100
785.102	165.713
785.230	158.325
785.358	163.238
785.487	157.287
785.615	157.750
785.743	148.925
785.871	151.250
785.999	153.463
786.127	148.250
786.255	160.963
786.383	160.363
786.512	152.125
786.640	150.625
786.768	155.800
786.896	152.450
787.024	150.900
787.152	147.850
787.280	144.588
787.408	144.250
787.537	151.225
787.665	150.312
787.793	153.450
787.921	148.512
788.049	149.488
788.177	142.200
788.305	145.775
788.433	152.800
788.562	145.375
788.690	143.588
788.818	143.137
788.946	144.350
789.074	144.363
789.202	149.000
789.330	142.650
789.458	144.525
789.587	145.525
789.715	145.325
789.843	144.363
789.971	142.150
790.099	141.012
790.227	141.812
790.355	140.312
790.483	144.613
790.612	141.787
790.740	143.525
790.868	147.050
790.996	141.738
791.124	145.500
791.252	143.687
791.380	148.762
791.508	138.725
791.637	151.037
791.765	137.075
791.893	135.200
792.021	145.562
792.149	138.175
792.277	139.375
792.405	141.975
792.533	149.137
792.662	136.350
792.790	140.000
792.918	143.900
793.046	134.937
793.174	139.637
793.302	139.937
793.430	139.463
793.558	144.463
793.687	135.150
793.815	138.950
793.943	144.150
794.071	137.050
794.199	135.725
794.327	137.850
794.455	156.713
794.583	150.825
794.712	143.687
794.840	135.950
794.968	136.225
795.096	138.937
795.224	133.137
795.352	131.113
795.480	142.375
795.608	135.250
795.737	141.225
795.865	138.550
795.993	129.675
796.121	130.912
796.249	135.613
796.377	135.675
796.505	135.850
796.633	132.912
796.762	133.863
796.890	140.137
797.018	137.425
797.146	128.988
797.274	131.100
797.402	134.787
797.530	132.550
797.658	130.400
797.787	139.838
797.915	131.787
798.043	137.613
798.171	134.262
798.299	129.738
798.427	131.725
798.555	128.912
798.683	127.750
798.812	131.350
798.940	130.662
799.068	133.525
799.196	136.037
799.324	126.338
799.452	135.150
799.580	127.263
799.708	140.275
799.837	124.075
799.965	127.763
800.093	131.925
800.221	128.012
800.349	131.137
800.477	132.300
800.605	128.588
800.733	132.088
800.862	128.000
800.990	142.012
801.118	132.437
801.246	123.838
801.374	126.900
801.502	131.262
801.630	124.237
801.758	128.200
801.887	131.575
802.015	125.513
802.143	126.487
802.271	128.887
802.399	131.775
802.527	128.887
802.655	127.475
802.783	132.512
802.912	128.275
803.040	126.175
803.168	123.237
803.296	124.088
803.424	124.112
803.552	124.412
803.680	127.350
803.808	122.838
803.937	125.050
804.065	125.537
804.193	123.138
804.321	134.213
804.449	123.787
804.577	124.937
804.705	124.037
804.833	122.037
804.962	116.662
805.090	121.750
805.218	126.187
805.346	120.687
805.474	122.437
805.602	139.588
805.730	124.437
805.858	120.362
805.987	132.125
806.115	125.800
806.243	124.162
806.371	118.100
806.499	123.013
806.627	118.375
806.755	127.375
806.883	119.675
807.012	118.612
807.140	121.937
807.268	121.875
807.396	128.088
807.524	116.650
807.652	122.088
807.780	135.338
807.908	121.350
808.037	129.075
808.165	122.763
808.293	120.937
808.421	126.237
808.549	116.450
808.677	114.575
808.805	126.350
808.933	118.737
809.062	119.775
809.190	141.000
809.318	120.525
809.446	119.025
809.574	127.625
809.702	120.300
809.830	115.013
809.958	122.775
810.087	116.900
810.215	126.250
810.343	133.338
810.471	119.850
810.599	114.750
810.727	116.450
810.855	115.287
810.983	119.838
811.112	120.525
811.240	116.138
811.368	122.562
811.496	127.500
811.624	122.662
811.752	118.513
811.880	115.487
812.008	114.838
812.137	120.450
812.265	119.662
812.393	118.987
812.521	119.350
812.649	117.687
812.777	120.638
812.905	124.138
813.033	114.375
813.162	118.700
813.290	114.150
813.418	122.300
813.546	109.888
813.674	117.575
813.802	122.150
813.930	114.800
814.058	111.750
814.187	113.150
814.315	117.588
814.443	117.638
814.571	112.687
814.699	121.412
814.827	115.075
814.955	114.075
815.083	114.150
815.212	118.463
815.340	116.888
815.468	111.513
815.596	112.225
815.724	112.162
815.852	119.412
815.980	110.912
816.108	113.575
816.237	114.937
816.365	112.150
816.493	115.437
816.621	108.600
816.749	112.500
816.877	115.037
817.005	115.400
817.133	114.287
817.262	112.350
817.390	111.175
817.518	110.350
817.646	114.350
817.774	112.412
817.902	117.638
818.030	111.675
818.158	116.200
818.287	113.487
818.415	109.400
818.543	113.787
818.671	119.825
818.799	114.325
818.927	119.225
819.055	114.213
819.183	111.750
819.312	114.237
819.440	116.775
819.568	112.338
819.696	118.950
819.824	117.987
819.952	114.487
820.080	113.412
820.208	112.737
820.337	112.450
820.465	113.175
820.593	111.775
820.721	112.975
820.849	110.950
820.977	108.300
821.105	109.213
821.233	109.312
821.362	118.025
821.490	111.900
821.618	110.100
821.746	107.638
821.874	110.625
822.002	113.550
822.130	111.187
822.258	109.362
822.387	111.925
822.515	111.200
822.643	113.100
822.771	110.588
822.899	111.062
823.027	110.763
823.155	109.362
823.283	114.362
823.412	113.412
823.540	111.162
823.668	130.338
823.796	109.937
823.924	114.075
824.052	116.388
824.180	111.338
824.308	113.138
824.437	111.662
824.565	109.388
824.693	109.612
824.821	112.588
824.949	112.912
825.077	113.812
825.205	118.013
825.333	112.513
825.462	111.350
825.590	108.338
825.718	113.763
825.846	108.638
825.974	110.425
826.102	110.888
826.230	111.138
826.358	109.575
826.487	107.275
826.615	106.075
826.743	109.225
826.871	113.187
826.999	112.550
827.127	111.812
827.255	108.750
827.383	107.338
827.512	115.237
827.640	109.500
827.768	110.825
827.896	112.850
828.024	110.225
828.152	111.487
828.280	110.425
828.408	110.775
828.537	112.862
828.665	110.888
828.793	107.537
828.921	108.900
829.049	109.250
829.177	106.937
829.305	109.025
829.433	106.787
829.562	107.912
829.690	110.025
829.818	113.200
829.946	110.500
830.074	106.963
830.202	111.250
830.330	114.588
830.458	118.350
830.587	108.475
830.715	107.687
830.843	105.713
830.971	108.475
831.099	110.362
831.227	107.175
831.355	106.287
831.483	106.375
831.612	113.763
831.740	110.800
831.868	119.037
831.996	108.237
832.124	107.150
832.252	107.150
832.380	107.562
832.508	110.575
832.637	109.400
832.765	109.013
832.893	109.787
833.021	111.187
833.149	108.162
833.277	105.838
833.405	106.675
833.533	107.775
833.662	106.175
833.790	110.388
833.918	109.325
834.046	110.850
834.174	110.525
834.302	108.187
834.430	107.675
834.558	109.175
834.687	111.187
834.815	111.088
834.943	107.412
835.071	106.400
835.199	105.888
835.327	107.275
835.455	104.437
835.583	109.750
835.712	106.700
835.840	108.625
835.968	107.912
836.096	109.412
836.224	112.037
836.352	107.475
836.480	110.600
836.608	114.675
836.737	105.562
836.865	105.675
836.993	106.987
837.121	108.600
837.249	109.375
837.377	110.600
837.505	110.763
837.633	108.375
837.762	108.412
837.890	108.350
838.018	112.838
838.146	108.662
838.274	110.200
838.402	114.750
838.530	104.950
838.658	104.900
838.787	111.612
838.915	108.850
839.043	110.375
839.171	113.400
839.299	109.200
839.427	110.200
839.555	114.588
839.683	109.175
839.812	108.150
839.940	104.612
840.068	107.100
840.196	107.437
840.324	110.588
840.452	110.925
840.580	109.162
840.708	109.687
840.837	108.138
840.965	108.275
841.093	109.912
841.221	111.625
841.349	108.537
841.477	108.075
841.605	105.737
841.733	104.875
841.862	106.412
841.990	108.013
842.118	105.562
842.246	106.600
842.374	104.525
842.502	107.950
842.630	109.025
842.758	109.475
842.887	108.800
843.015	109.787
843.143	109.237
843.271	109.825
843.399	113.263
843.527	106.375
843.655	108.963
843.783	106.750
843.912	105.800
844.040	110.862
844.168	115.600
844.296	110.325
844.424	107.312
844.552	111.112
844.680	112.838
844.808	108.463
844.937	106.125
845.065	107.588
845.193	107.062
845.321	103.825
845.449	105.425
845.577	103.875
845.705	108.513
845.833	109.975
845.962	107.463
846.090	104.100
846.218	108.237
846.346	109.925
846.474	106.263
846.602	106.437
846.730	103.625
846.858	104.050
846.987	107.638
847.115	107.450
847.243	109.525
847.371	108.588
847.499	107.037
847.627	107.550
847.755	104.912
847.883	108.062
848.012	108.250
848.140	110.050
848.268	107.050
848.396	108.463
848.524	106.950
848.652	105.275
848.780	104.987
848.908	110.975
849.037	108.588
849.165	106.075
849.293	105.862
849.421	111.000
849.549	106.575
849.677	106.537
849.805	112.350
849.933	107.737
850.062	107.125
850.190	105.562
850.318	108.975
850.446	108.225
850.574	104.612
850.702	104.713
850.830	109.050
850.958	107.875
851.087	107.450
851.215	110.775
851.343	108.287
851.471	105.750
851.599	104.000
851.727	110.088
851.855	106.537
851.983	108.888
852.112	108.662
852.240	106.000
852.368	108.763
852.496	106.937
852.624	106.138
852.752	105.950
852.880	105.125
853.008	110.162
853.137	108.338
853.265	105.263
853.393	111.175
853.521	111.725
853.649	110.112
853.777	106.263
853.905	107.550
854.033	105.338
854.162	106.388
854.290	105.900
854.418	101.800
854.546	105.800
854.674	107.287
854.802	107.575
854.930	106.825
855.058	105.763
855.187	104.987
855.315	104.013
855.443	103.912
855.571	103.750
855.699	104.725
855.827	105.412
855.955	102.575
856.083	105.562
856.212	108.050
856.340	107.325
856.468	112.763
856.596	108.600
856.724	108.362
856.852	106.112
856.980	108.437
857.108	108.787
857.237	106.275
857.365	107.338
857.493	105.650
857.621	106.463
857.749	105.100
857.877	104.737
858.005	109.225
858.133	106.075
858.262	105.812
858.390	105.662
858.518	102.362
858.646	106.862
858.774	104.963
858.902	108.000
859.030	105.975
859.158	105.412
859.287	107.725
859.415	108.200
859.543	105.475
859.671	108.838
859.799	111.088
859.927	107.162
860.055	108.300
860.183	103.700
860.312	105.650
860.440	108.787
860.568	109.513
860.696	107.525
860.824	117.487
860.952	103.862
861.080	107.138
861.208	107.625
861.337	107.925
861.465	107.600
861.593	112.125
861.721	105.062
861.849	106.100
861.977	105.187
862.105	106.300
862.233	104.600
862.362	106.787
862.490	104.300
862.618	103.125
862.746	106.050
862.874	106.963
863.002	106.475
863.130	109.987
863.258	107.350
863.387	106.750
863.515	108.937
863.643	105.100
863.771	104.312
863.899	107.588
864.027	104.125
864.155	107.162
864.283	106.588
864.412	105.725
864.540	105.750
864.668	105.825
864.796	107.675
864.924	106.037
865.052	114.675
865.180	105.662
865.308	102.463
865.437	108.575
865.565	107.925
865.693	111.737
865.821	108.125
865.949	106.787
866.077	107.000
866.205	104.550
866.333	106.537
866.462	105.662
866.590	105.750
866.718	108.162
866.846	105.150
866.974	107.425
867.102	108.088
867.230	104.350
867.358	105.775
867.487	105.862
867.615	104.200
867.743	104.900
867.871	109.013
867.999	107.013
868.127	107.175
868.255	116.388
868.383	110.687
868.512	107.537
868.640	107.888
868.768	108.213
868.896	108.213
869.024	106.963
869.152	107.412
869.280	107.325
869.408	107.725
869.537	106.925
869.665	105.263
869.793	105.300
869.921	111.713
870.049	108.287
870.177	109.088
870.305	116.112
870.433	107.513
870.562	105.725
870.690	105.175
870.818	104.025
870.946	106.437
871.074	105.100
871.202	104.775
871.330	104.937
871.458	105.375
871.587	105.525
871.715	104.787
871.843	106.350
871.971	106.150
872.099	104.850
872.227	106.225
872.355	107.225
872.483	104.100
872.612	107.625
872.740	107.037
872.868	105.150
872.996	107.888
873.124	107.662
873.252	108.037
873.380	107.263
873.508	106.912
873.637	104.162
873.765	107.400
873.893	107.263
874.021	106.950
874.149	107.850
874.277	107.250
874.405	111.175
874.533	106.838
874.662	333.475
874.790	113.862
874.918	112.537
875.046	107.400
875.174	109.875
875.302	107.075
875.430	107.437
875.558	106.937
875.687	110.925
875.815	108.888
875.943	109.062
876.071	109.287
876.199	108.275
876.327	113.250
876.455	104.888
876.583	107.787
876.712	106.275
876.840	109.263
876.968	105.250
877.096	105.588
877.224	104.437
877.352	102.737
877.480	105.600
877.608	105.300
877.737	105.650
877.865	105.950
877.993	109.675
878.121	107.025
878.249	107.625
878.377	109.312
878.505	107.225
878.633	106.200
878.762	106.725
878.890	105.575
879.018	113.150
879.146	108.175
879.274	105.175
879.402	106.650
879.530	106.075
879.658	109.200
879.787	108.250
879.915	106.875
880.043	106.263
880.171	107.312
880.299	106.125
880.427	105.550
880.555	107.300
880.683	109.062
880.812	107.388
880.940	106.787
881.068	107.687
881.196	105.088
881.324	108.612
881.452	107.200
881.580	107.287
881.708	107.375
881.837	106.325
881.965	106.000
882.093	106.812
882.221	105.588
882.349	109.638
882.477	109.800
882.605	113.912
882.733	110.000
882.862	105.900
882.990	104.437
883.118	107.425
883.246	106.325
883.374	107.037
883.502	106.425
883.630	104.825
883.758	106.600
883.887	105.263
884.015	105.263
884.143	106.100
884.271	108.062
884.399	105.925
884.527	106.150
884.655	105.925
884.783	107.362
884.912	105.388
885.040	105.600
885.168	106.900
885.296	102.425
885.424	107.213
885.552	112.550
885.680	107.987
885.808	109.588
885.937	112.950
886.065	108.138
886.193	106.513
886.321	104.300
886.449	105.350
886.577	105.987
886.705	106.237
886.833	107.013
886.962	106.187
887.090	108.287
887.218	106.412
887.346	104.575
887.474	114.600
887.602	109.500
887.730	104.513
887.858	107.412
887.987	108.500
888.115	113.138
888.243	108.100
888.371	106.300
888.499	110.100
888.627	105.037
888.755	105.187
888.883	106.225
889.012	106.362
889.140	107.287
889.268	112.800
889.396	119.100
889.524	106.650
889.652	104.375
889.780	107.050
889.908	106.950
890.037	106.013
890.165	106.987
890.293	108.838
890.421	106.787
890.549	108.388
890.677	107.775
890.805	106.875
890.933	105.937
891.062	106.612
891.190	110.175
891.318	111.388
891.446	110.575
891.574	107.588
891.702	105.875
891.830	106.825
891.958	111.100
892.087	111.062
892.215	106.213
892.343	108.025
892.471	107.487
892.599	108.925
892.727	111.287
892.855	109.487
892.983	109.138
893.112	106.888
893.240	111.825
893.368	109.600
893.496	109.425
893.624	107.838
893.752	105.987
893.880	110.450
894.008	107.275
894.137	108.325
894.265	110.650
894.393	110.750
894.521	108.537
894.649	111.275
894.777	105.950
894.905	105.775
895.033	114.300
895.162	108.763
895.290	107.037
895.418	111.888
895.546	111.787
895.674	112.737
895.802	107.725
895.930	107.875
896.058	105.650
896.187	104.800
896.315	106.713
896.443	108.062
896.571	108.562
896.699	107.638
896.827	106.487
896.955	108.050
897.083	111.500
897.212	110.725
897.340	105.825
897.468	106.362
897.596	109.150
897.724	107.900
897.852	114.812
897.980	106.638
898.108	106.713
898.237	106.662
898.365	106.550
898.493	105.975
898.621	112.775
898.749	107.025
898.877	109.237
899.005	106.138
899.133	107.838
899.262	108.025
899.390	107.487
899.518	107.287
899.646	110.175
899.774	115.175
899.902	120.200
900.030	105.687
900.158	104.600
900.287	108.662
900.415	104.162
900.543	106.275
900.671	112.100
900.799	108.000
900.927	108.950
901.055	109.075
901.183	107.537
901.312	109.125
901.440	113.987
901.568	111.062
901.696	109.500
901.824	111.175
901.952	112.800
902.080	110.812
902.208	110.000
902.337	111.537
902.465	112.062
902.593	111.487
902.721	107.513
902.849	107.437
902.977	109.862
903.105	113.775
903.233	119.350
903.362	110.900
903.490	109.100
903.618	107.800
903.746	111.000
903.874	109.312
904.002	108.850
904.130	110.213
904.258	110.225
904.387	107.162
904.515	106.550
904.643	108.100
904.771	109.300
904.899	109.588
905.027	108.062
905.155	106.475
905.283	111.062
905.412	113.100
905.540	109.875
905.668	104.838
905.796	106.350
905.924	108.588
906.052	110.775
906.180	111.375
906.308	108.463
906.437	115.825
906.565	112.000
906.693	109.350
906.821	107.088
906.949	105.987
907.077	109.575
907.205	113.650
907.333	113.325
907.462	111.725
907.590	110.888
907.718	112.000
907.846	110.450
907.974	110.162
908.102	109.763
908.230	111.912
908.358	116.263
908.487	110.237
908.615	109.312
908.743	111.475
908.871	111.000
908.999	110.425
909.127	115.312
909.255	107.900
909.383	109.537
909.512	113.487
909.640	112.588
909.768	113.200
909.896	118.300
910.024	115.225
910.152	114.800
910.280	120.125
910.408	108.825
910.537	110.963
910.665	113.125
910.793	113.275
910.921	118.800
911.049	113.412
911.177	109.725
911.305	113.138
911.433	111.037
911.562	111.900
911.690	109.037
911.818	120.775
911.946	113.450
912.074	111.725
912.202	113.700
912.330	121.150
912.458	112.400
912.587	116.100
912.715	114.812
912.843	112.138
912.971	113.487
913.099	117.062
913.227	116.300
913.355	117.725
913.483	115.050
913.612	114.338
913.740	121.100
913.868	114.562
