sample12_PP_at_750.00nm_cut_at_1008.00Y_01.dat
15.05.2023
11:10:20
cut middle at Y: 1008.00
top cursor: 1048 down cursor: 968 mean of: 80 lines , 2560 datapoints
wavelength(nm)	intensity[arb. units]
585.996	1046.350
586.124	1030.987
586.252	1028.975
586.380	1036.588
586.508	1043.750
586.637	1040.550
586.765	1042.375
586.893	1047.975
587.021	1045.638
587.149	1055.787
587.277	1052.737
587.405	1076.925
587.533	1059.675
587.662	1058.550
587.790	1075.987
587.918	1076.050
588.046	1071.638
588.174	1057.963
588.302	1084.263
588.430	1070.125
588.558	1078.437
588.687	1071.237
588.815	1085.338
588.943	1080.525
589.071	1086.162
589.199	1095.013
589.327	1078.975
589.455	1070.562
589.583	1092.475
589.712	1092.662
589.840	1098.800
589.968	1083.162
590.096	1092.275
590.224	1097.100
590.352	1096.562
590.480	1094.775
590.608	1098.987
590.737	1089.425
590.865	1108.112
590.993	1103.138
591.121	1108.088
591.249	1116.987
591.377	1115.625
591.505	1106.888
591.633	1112.325
591.762	1122.450
591.890	1114.487
592.018	1121.537
592.146	1120.687
592.274	1131.312
592.402	1127.513
592.530	1122.662
592.658	1140.675
592.787	1137.937
592.915	1136.100
593.043	1139.987
593.171	1148.900
593.299	1151.300
593.427	1151.500
593.555	1153.937
593.683	1159.275
593.812	1156.487
593.940	1170.025
594.068	1172.025
594.196	1190.213
594.324	1173.150
594.452	1195.300
594.580	1190.025
594.708	1176.675
594.837	1189.713
594.965	1203.325
595.093	1196.062
595.221	1202.713
595.349	1209.600
595.477	1206.213
595.605	1206.425
595.733	1240.175
595.862	1218.675
595.990	1216.963
596.118	1232.088
596.246	1225.600
596.374	1258.287
596.502	1256.950
596.630	1254.138
596.758	1261.400
596.887	1274.112
597.015	1273.213
597.143	1242.675
597.271	1265.825
597.399	1270.463
597.527	1282.500
597.655	1274.763
597.783	1280.825
597.912	1263.787
598.040	1289.562
598.168	1280.912
598.296	1271.350
598.424	1278.675
598.552	1302.937
598.680	1276.862
598.808	1288.737
598.937	1306.763
599.065	1301.362
599.193	1306.662
599.321	1290.675
599.449	1309.450
599.577	1295.437
599.705	1297.950
599.833	1305.213
599.962	1306.925
600.090	1299.513
600.218	1298.675
600.346	1307.600
600.474	1321.562
600.602	1312.925
600.730	1314.600
600.858	1327.525
600.987	1321.325
601.115	1332.325
601.243	1329.888
601.371	1347.537
601.499	1339.013
601.627	1341.575
601.755	1352.650
601.883	1342.700
602.012	1355.112
602.140	1359.187
602.268	1365.412
602.396	1372.600
602.524	1379.400
602.652	1379.025
602.780	1384.088
602.908	1390.388
603.037	1394.925
603.165	1418.750
603.293	1428.513
603.421	1429.175
603.549	1414.900
603.677	1454.225
603.805	1421.138
603.933	1435.575
604.062	1436.700
604.190	1463.612
604.318	1446.662
604.446	1475.513
604.574	1483.112
604.702	1465.350
604.830	1478.375
604.958	1491.225
605.087	1512.450
605.215	1502.838
605.343	1522.300
605.471	1518.175
605.599	1517.937
605.727	1536.500
605.855	1543.963
605.983	1520.812
606.112	1558.237
606.240	1574.237
606.368	1563.912
606.496	1564.300
606.624	1569.100
606.752	1586.787
606.880	1589.975
607.008	1599.713
607.137	1596.787
607.265	1599.237
607.393	1621.800
607.521	1625.037
607.649	1612.725
607.777	1612.713
607.905	1612.263
608.033	1625.312
608.162	1636.625
608.290	1624.687
608.418	1655.263
608.546	1641.825
608.674	1656.600
608.802	1635.025
608.930	1669.062
609.058	1655.550
609.187	1659.338
609.315	1660.425
609.443	1666.450
609.571	1671.300
609.699	1688.550
609.827	1681.437
609.955	1688.350
610.083	1688.588
610.212	1687.263
610.340	1699.125
610.468	1679.200
610.596	1705.888
610.724	1697.388
610.852	1722.475
610.980	1710.650
611.108	1720.963
611.237	1726.838
611.365	1733.487
611.493	1724.362
611.621	1738.375
611.749	1747.687
611.877	1766.187
612.005	1756.263
612.133	1750.737
612.262	1763.862
612.390	1769.750
612.518	1799.975
612.646	1777.588
612.774	1793.175
612.902	1806.375
613.030	1806.200
613.158	1825.525
613.287	1865.088
613.415	1842.787
613.543	1845.763
613.671	1842.925
613.799	1871.950
613.927	1859.350
614.055	1874.525
614.183	1890.437
614.312	1880.937
614.440	1895.588
614.568	1903.875
614.696	1918.575
614.824	1914.025
614.952	1922.125
615.080	1932.725
615.208	1947.850
615.337	1960.437
615.465	1964.125
615.593	1984.213
615.721	1978.487
615.849	2002.513
615.977	2000.213
616.105	2010.175
616.233	2022.713
616.362	2047.513
616.490	2023.325
616.618	2046.400
616.746	2051.650
616.874	2078.625
617.002	2076.312
617.130	2097.262
617.258	2089.625
617.387	2085.875
617.515	2109.350
617.643	2138.725
617.771	2138.275
617.899	2156.012
618.027	2150.200
618.155	2166.838
618.283	2152.675
618.412	2165.037
618.540	2177.400
618.668	2183.525
618.796	2178.287
618.924	2220.450
619.052	2209.088
619.180	2208.800
619.308	2213.775
619.437	2221.975
619.565	2230.863
619.693	2243.613
619.821	2233.088
619.949	2235.338
620.077	2265.062
620.205	2264.262
620.333	2275.137
620.462	2298.687
620.590	2306.300
620.718	2299.675
620.846	2321.600
620.974	2360.037
621.102	2321.437
621.230	2326.463
621.358	2353.412
621.487	2324.387
621.615	2359.787
621.743	2396.963
621.871	2368.037
621.999	2391.088
622.127	2391.012
622.255	2395.875
622.383	2402.287
622.512	2416.500
622.640	2456.125
622.768	2417.425
622.896	2420.825
623.024	2441.350
623.152	2473.262
623.280	2445.412
623.408	2451.925
623.537	2487.775
623.665	2490.787
623.793	2506.537
623.921	2484.838
624.049	2484.187
624.177	2524.725
624.305	2531.575
624.433	2543.637
624.562	2541.500
624.690	2550.275
624.818	2588.287
624.946	2655.775
625.074	2588.713
625.202	2593.213
625.330	2584.787
625.458	2626.012
625.587	2616.525
625.715	2640.800
625.843	2686.975
625.971	2661.287
626.099	2652.113
626.227	2674.000
626.355	2662.887
626.483	2739.950
626.612	2660.562
626.740	2681.738
626.868	2738.012
626.996	2684.213
627.124	2701.088
627.252	2712.088
627.380	2756.100
627.508	2748.725
627.637	2727.550
627.765	2772.425
627.893	2802.662
628.021	2784.150
628.149	2799.725
628.277	2850.687
628.405	2897.037
628.533	2803.088
628.662	2855.738
628.790	2858.300
628.918	2845.463
629.046	2847.937
629.174	2868.475
629.302	3003.900
629.430	2893.325
629.558	2950.475
629.687	2944.200
629.815	2964.300
629.943	3021.713
630.071	3005.025
630.199	3009.850
630.327	3049.025
630.455	3025.125
630.583	3129.537
630.712	3090.650
630.840	3095.338
630.968	3141.713
631.096	3120.575
631.224	3123.537
631.352	3123.562
631.480	3174.275
631.608	3163.387
631.737	3277.287
631.865	3387.338
631.993	3213.012
632.121	3321.537
632.249	3330.287
632.377	3329.800
632.505	3355.975
632.633	3261.775
632.762	3367.950
632.890	3451.363
633.018	3340.787
633.146	3444.050
633.274	3401.213
633.402	3419.250
633.530	3390.113
633.658	3547.588
633.787	3398.162
633.915	3520.075
634.043	3453.475
634.171	3485.400
634.299	3523.463
634.427	3591.588
634.555	3575.937
634.683	3518.838
634.812	3547.750
634.940	3562.812
635.068	3540.025
635.196	3589.400
635.324	3604.662
635.452	3667.025
635.580	3608.338
635.708	3612.113
635.837	3671.800
635.965	3648.762
636.093	3654.200
636.221	3660.375
636.349	3733.012
636.477	3651.613
636.605	3805.775
636.733	3658.425
636.862	3704.450
636.990	3717.650
637.118	3788.575
637.246	3760.262
637.374	3744.812
637.502	3736.575
637.630	3738.100
637.758	3771.350
637.887	3749.812
638.015	3762.613
638.143	3801.162
638.271	3795.750
638.399	3800.300
638.527	3803.537
638.655	3805.338
638.783	3974.075
638.912	3880.250
639.040	3873.213
639.168	3909.600
639.296	3876.338
639.424	4022.363
639.552	3899.687
639.680	3934.787
639.808	3978.588
639.937	3912.675
640.065	3949.088
640.193	4053.262
640.321	3980.125
640.449	4064.800
640.577	4105.350
640.705	4026.225
640.833	4167.000
640.962	4068.525
641.090	4063.925
641.218	4067.937
641.346	4136.275
641.474	4151.800
641.602	4135.962
641.730	4117.950
641.858	4174.738
641.987	4224.988
642.115	4173.275
642.243	4264.462
642.371	4266.900
642.499	4264.750
642.627	4310.475
642.755	4359.712
642.883	4369.337
643.012	4348.300
643.140	4315.363
643.268	4380.100
643.396	4397.038
643.524	4575.762
643.652	4455.988
643.780	4468.525
643.908	4486.837
644.037	4612.288
644.165	4492.300
644.293	4527.687
644.421	4529.187
644.549	4601.275
644.677	4547.250
644.805	4639.562
644.933	4568.075
645.062	4652.687
645.190	4659.288
645.318	4750.150
645.446	4718.050
645.574	4735.863
645.702	4725.687
645.830	4916.850
645.958	4757.712
646.087	4971.650
646.215	4769.850
646.343	4962.700
646.471	4890.337
646.599	4909.400
646.727	4863.525
646.855	4899.300
646.983	4935.375
647.112	4912.337
647.240	5096.863
647.368	4982.337
647.496	5028.125
647.624	4960.937
647.752	4968.950
647.880	5002.225
648.008	5019.950
648.137	5059.750
648.265	5037.337
648.393	5055.300
648.521	5086.687
648.649	5108.337
648.777	5148.413
648.905	5117.863
649.033	5145.700
649.162	5141.962
649.290	5147.637
649.418	5226.163
649.546	5207.775
649.674	5272.300
649.802	5195.163
649.930	5384.512
650.058	5186.988
650.187	5261.137
650.315	5230.762
650.443	5326.863
650.571	5261.712
650.699	5275.887
650.827	5276.113
650.955	5310.238
651.083	5322.262
651.212	5375.488
651.340	5418.900
651.468	5373.650
651.596	5356.587
651.724	5348.050
651.852	5378.538
651.980	5371.500
652.108	5498.663
652.237	5430.100
652.365	5517.800
652.493	5391.900
652.621	5431.637
652.749	5532.387
652.877	5442.562
653.005	5460.475
653.133	5425.700
653.262	5512.650
653.390	5478.500
653.518	5624.262
653.646	5513.062
653.774	5712.275
653.902	5571.150
654.030	5520.788
654.158	5565.062
654.287	5572.913
654.415	5618.937
654.543	5622.887
654.671	5683.387
654.799	5636.100
654.927	5588.488
655.055	5637.825
655.183	5649.025
655.312	5654.712
655.440	5700.700
655.568	5642.587
655.696	5750.350
655.824	5817.575
655.952	5710.625
656.080	5694.900
656.208	5873.975
656.337	5748.488
656.465	5796.913
656.593	5792.375
656.721	5791.337
656.849	5855.238
656.977	5796.275
657.105	5836.550
657.233	5779.113
657.362	5846.913
657.490	5840.863
657.618	5856.800
657.746	5840.350
657.874	5834.275
658.002	5861.212
658.130	5870.550
658.258	5851.613
658.387	5888.425
658.515	5884.475
658.643	5967.300
658.771	5937.712
658.899	5935.650
659.027	5961.000
659.155	5960.850
659.283	6139.825
659.412	6012.062
659.540	6091.425
659.668	5973.975
659.796	6037.137
659.924	6087.325
660.052	6012.262
660.180	6058.887
660.308	6064.012
660.437	6060.475
660.565	6055.475
660.693	6074.475
660.821	6085.100
660.949	6090.800
661.077	6089.712
661.205	6120.562
661.333	6099.200
661.462	6234.725
661.590	6153.637
661.718	6322.400
661.846	6224.437
661.974	6345.562
662.102	6203.250
662.230	6251.212
662.358	6210.600
662.487	6208.225
662.615	6189.762
662.743	6186.937
662.871	6213.762
662.999	6229.300
663.127	6229.225
663.255	6345.687
663.383	6352.400
663.512	6258.137
663.640	6296.613
663.768	6284.375
663.896	6307.550
664.024	6370.012
664.152	6298.425
664.280	6343.163
664.408	6372.850
664.537	6382.512
664.665	6310.175
664.793	6306.975
664.921	6345.075
665.049	6358.150
665.177	6363.762
665.305	6409.050
665.433	6402.425
665.562	6393.587
665.690	6415.900
665.818	6582.562
665.946	6430.988
666.074	6430.038
666.202	6423.137
666.330	6485.025
666.458	6444.462
666.587	6409.175
666.715	6451.025
666.843	6416.725
666.971	6419.288
667.099	6480.887
667.227	6492.913
667.355	6506.413
667.483	6468.187
667.612	6505.413
667.740	6510.587
667.868	6562.875
667.996	6500.387
668.124	6475.762
668.252	6495.187
668.380	6486.550
668.508	6519.788
668.637	6521.250
668.765	6494.913
668.893	6567.200
669.021	6516.750
669.149	6587.738
669.277	6570.600
669.405	6563.300
669.533	6514.475
669.662	6789.600
669.790	6541.437
669.918	6604.600
670.046	6521.163
670.174	6644.238
670.302	6596.062
670.430	6545.788
670.558	6601.012
670.687	6543.488
670.815	6703.475
670.943	6469.988
671.071	6543.863
671.199	6546.350
671.327	6520.212
671.455	6497.512
671.583	6515.700
671.712	6649.900
671.840	6531.913
671.968	6509.962
672.096	6486.050
672.224	6463.712
672.352	6657.700
672.480	6485.387
672.608	6427.562
672.737	6439.525
672.865	6597.500
672.993	6462.288
673.121	6400.413
673.249	6403.650
673.377	6376.775
673.505	6392.175
673.633	6402.175
673.762	6368.225
673.890	6375.650
674.018	6600.500
674.146	6381.738
674.274	6388.750
674.402	6542.700
674.530	6365.587
674.658	6350.437
674.787	6311.937
674.915	6284.587
675.043	6391.200
675.171	6362.387
675.299	6257.212
675.427	6332.712
675.555	6252.337
675.683	6240.800
675.812	6270.562
675.940	6276.375
676.068	6267.150
676.196	6215.325
676.324	6241.687
676.452	6268.050
676.580	6184.887
676.708	6251.962
676.837	6261.125
676.965	6162.363
677.093	6180.238
677.221	6152.137
677.349	6185.137
677.477	6231.462
677.605	6103.988
677.733	6175.050
677.862	6069.375
677.990	6069.425
678.118	6038.775
678.246	6071.100
678.374	6058.100
678.502	6008.075
678.630	5985.187
678.758	5935.512
678.887	5957.587
679.015	5929.525
679.143	5924.525
679.271	5933.812
679.399	5931.700
679.527	5915.087
679.655	5870.675
679.783	5893.600
679.912	5869.437
680.040	5865.012
680.168	5855.988
680.296	5874.913
680.424	5807.375
680.552	5855.863
680.680	5924.212
680.808	5780.512
680.937	5738.300
681.065	5732.363
681.193	5752.425
681.321	5759.363
681.449	5718.225
681.577	5724.312
681.705	5742.350
681.833	5705.587
681.962	5664.900
682.090	5840.163
682.218	5643.387
682.346	5625.325
682.474	5649.225
682.602	5606.950
682.730	5609.825
682.858	5565.975
682.987	5638.175
683.115	5595.200
683.243	5548.462
683.371	5511.525
683.499	5531.663
683.627	5599.163
683.755	5608.550
683.883	5659.738
684.012	5513.613
684.140	5510.125
684.268	5489.400
684.396	5493.137
684.524	5468.100
684.652	5539.075
684.780	5511.725
684.908	5495.150
685.037	5400.325
685.165	5386.350
685.293	5405.437
685.421	5485.725
685.549	5361.250
685.677	5370.200
685.805	5502.125
685.933	5393.325
686.062	5322.100
686.190	5312.262
686.318	5334.663
686.446	5307.887
686.574	5274.175
686.702	5381.687
686.830	5258.887
686.958	5240.975
687.087	5249.450
687.215	5278.500
687.343	5191.113
687.471	5197.675
687.599	5167.988
687.727	5348.012
687.855	5177.950
687.983	5184.812
688.112	5254.913
688.240	5106.663
688.368	5078.012
688.496	5144.587
688.624	5158.312
688.752	5038.850
688.880	5074.812
689.008	5064.925
689.137	5038.837
689.265	4976.725
689.393	4975.437
689.521	4935.950
689.649	4971.137
689.777	4932.087
689.905	4918.887
690.033	4918.712
690.162	4902.613
690.290	4857.350
690.418	4867.825
690.546	4869.512
690.674	4919.075
690.802	4784.637
690.930	4827.925
691.058	4819.175
691.187	4771.450
691.315	4717.387
691.443	4799.450
691.571	4697.925
691.699	4728.137
691.827	4738.750
691.955	4657.050
692.083	4644.613
692.212	4749.962
692.340	4592.738
692.468	4573.113
692.596	4602.962
692.724	4687.275
692.852	4544.212
692.980	4600.663
693.108	4511.562
693.237	4454.125
693.365	4466.012
693.493	4417.062
693.621	4413.562
693.749	4402.500
693.877	4363.863
694.005	4438.425
694.133	4339.275
694.262	4347.113
694.390	4273.312
694.518	4272.125
694.646	4240.187
694.774	4242.850
694.902	4338.650
695.030	4288.137
695.158	4165.462
695.287	4133.512
695.415	4131.850
695.543	4124.375
695.671	4179.788
695.799	4091.262
695.927	4087.537
696.055	4069.887
696.183	4070.613
696.312	4023.800
696.440	4186.475
696.568	4049.088
696.696	3992.387
696.824	3926.387
696.952	3924.162
697.080	3910.012
697.208	3871.437
697.337	3942.687
697.465	3860.775
697.593	3785.062
697.721	3805.900
697.849	3822.825
697.977	3792.738
698.105	3791.687
698.233	3718.125
698.362	3724.887
698.490	3682.425
698.618	3665.062
698.746	3772.925
698.874	3670.988
699.002	3802.738
699.130	3606.662
699.258	3627.850
699.387	3561.500
699.515	3599.988
699.643	3531.012
699.771	3588.025
699.899	3525.450
700.027	3538.412
700.155	3454.275
700.283	3436.750
700.412	3472.838
700.540	3438.800
700.668	3460.687
700.796	3377.975
700.924	3376.650
701.052	3345.787
701.180	3473.925
701.308	3366.075
701.437	3287.613
701.565	3270.525
701.693	3240.662
701.821	3245.575
701.949	3222.025
702.077	3239.037
702.205	3168.000
702.333	3189.512
702.462	3156.637
702.590	3149.475
702.718	3112.338
702.846	3105.738
702.974	3083.450
703.102	3079.725
703.230	3149.963
703.358	3110.400
703.487	3004.350
703.615	3217.725
703.743	2991.475
703.871	2982.537
703.999	2994.600
704.127	3027.912
704.255	2877.238
704.383	3091.000
704.512	2920.887
704.640	2897.363
704.768	2825.812
704.896	2925.225
705.024	2816.062
705.152	2903.800
705.280	2799.262
705.408	2769.225
705.537	2764.400
705.665	2737.025
705.793	2730.613
705.921	2693.387
706.049	2725.213
706.177	2654.050
706.305	2668.537
706.433	2735.475
706.562	2651.137
706.690	2604.562
706.818	2586.850
706.946	2729.525
707.074	2602.437
707.202	2562.400
707.330	2580.850
707.458	2537.800
707.587	2520.350
707.715	2518.637
707.843	2521.012
707.971	2522.300
708.099	2520.325
708.227	2470.025
708.355	2461.725
708.483	2453.588
708.612	2441.850
708.740	2425.200
708.868	2435.625
708.996	2421.537
709.124	2413.350
709.252	2378.125
709.380	2341.162
709.508	2337.387
709.637	2335.387
709.765	2319.025
709.893	2309.125
710.021	2295.187
710.149	2291.762
710.277	2302.113
710.405	2274.262
710.533	2245.525
710.662	2254.062
710.790	2229.863
710.918	2215.550
711.046	2201.650
711.174	2188.200
711.302	2190.025
711.430	2142.062
711.558	2173.562
711.687	2133.613
711.815	2131.988
711.943	2130.238
712.071	2110.287
712.199	2096.287
712.327	2083.125
712.455	2067.575
712.583	2064.488
712.712	2067.762
712.840	2056.150
712.968	2026.412
713.096	2019.550
713.224	1999.975
713.352	1994.525
713.480	1973.650
713.608	1963.312
713.737	1942.162
713.865	1951.237
713.993	1934.487
714.121	1911.787
714.249	1910.263
714.377	1895.850
714.505	1913.263
714.633	1859.825
714.762	1864.888
714.890	1871.925
715.018	1842.000
715.146	1818.362
715.274	1819.400
715.402	1796.237
715.530	1827.450
715.658	1793.662
715.787	1795.475
715.915	1772.687
716.043	1749.800
716.171	1769.037
716.299	1777.200
716.427	1743.013
716.555	1720.987
716.683	1702.325
716.812	1682.287
716.940	1705.263
717.068	1662.588
717.196	1654.450
717.324	1663.112
717.452	1651.825
717.580	1641.787
717.708	1627.187
717.837	1637.412
717.965	1614.175
718.093	1592.162
718.221	1575.475
718.349	1575.787
718.477	1569.800
718.605	1547.000
718.733	1543.200
718.862	1541.325
718.990	1526.150
719.118	1520.900
719.246	1508.638
719.374	1492.912
719.502	1503.287
719.630	1498.888
719.758	1478.875
719.887	1462.400
720.015	1464.850
720.143	1440.162
720.271	1442.687
720.399	1429.162
720.527	1416.800
720.655	1410.388
720.783	1390.900
720.912	1388.713
721.040	1402.237
721.168	1377.237
721.296	1375.412
721.424	1361.687
721.552	1358.075
721.680	1335.437
721.808	1353.412
721.937	1327.550
722.065	1320.912
722.193	1292.138
722.321	1293.675
722.449	1295.838
722.577	1290.912
722.705	1267.750
722.833	1262.875
722.962	1265.925
723.090	1245.187
723.218	1240.138
723.346	1236.388
723.474	1226.075
723.602	1221.025
723.730	1209.500
723.858	1225.825
723.987	1202.400
724.115	1174.925
724.243	1185.325
724.371	1182.925
724.499	1178.200
724.627	1166.112
724.755	1158.263
724.883	1157.950
725.012	1134.713
725.140	1128.650
725.268	1123.000
725.396	1106.925
725.524	1103.950
725.652	1112.325
725.780	1088.412
725.908	1077.950
726.037	1080.612
726.165	1065.987
726.293	1056.800
726.421	1042.975
726.549	1046.650
726.677	1047.600
726.805	1035.775
726.933	1032.612
727.062	1018.413
727.190	1014.112
727.318	1009.337
727.446	1000.263
727.574	1002.975
727.702	988.337
727.830	974.450
727.958	975.450
728.087	972.275
728.215	964.700
728.343	955.050
728.471	956.825
728.599	940.825
728.727	954.875
728.855	937.925
728.983	909.225
729.112	918.712
729.240	921.462
729.368	914.000
729.496	912.875
729.624	905.600
729.752	885.400
729.880	893.525
730.008	874.538
730.137	878.862
730.265	868.638
730.393	865.812
730.521	860.112
730.649	854.225
730.777	854.163
730.905	841.638
731.033	830.462
731.162	826.038
731.290	837.575
731.418	829.212
731.546	839.250
731.674	804.575
731.802	801.362
731.930	810.475
732.058	798.812
732.187	794.587
732.315	779.475
732.443	791.100
732.571	773.825
732.699	764.712
732.827	764.788
732.955	762.612
733.083	757.925
733.212	749.875
733.340	759.975
733.468	742.187
733.596	747.300
733.724	737.650
733.852	732.050
733.980	726.525
734.108	745.487
734.237	742.337
734.365	710.775
734.493	714.987
734.621	709.175
734.749	709.763
734.877	709.500
735.005	693.825
735.133	697.013
735.262	698.625
735.390	686.550
735.518	687.325
735.646	673.687
735.774	677.888
735.902	681.775
736.030	659.850
736.158	667.987
736.287	660.062
736.415	652.200
736.543	652.400
736.671	652.087
736.799	645.900
736.927	652.763
737.055	649.075
737.183	641.413
737.312	640.562
737.440	640.325
737.568	648.825
737.696	628.638
737.824	624.825
737.952	632.275
738.080	624.600
738.208	619.038
738.337	607.038
738.465	615.400
738.593	592.388
738.721	606.475
738.849	590.000
738.977	598.638
739.105	596.737
739.233	582.900
739.362	582.375
739.490	577.975
739.618	577.325
739.746	582.962
739.874	584.437
740.002	568.325
740.130	566.350
740.258	571.450
740.387	568.388
740.515	550.700
740.643	555.288
740.771	564.112
740.899	541.550
741.027	543.575
741.155	546.725
741.283	534.625
741.412	538.475
741.540	525.663
741.668	531.538
741.796	517.775
741.924	531.175
742.052	527.800
742.180	515.513
742.308	515.050
742.437	521.225
742.565	518.087
742.693	519.312
742.821	506.538
742.949	507.625
743.077	502.050
743.205	503.075
743.333	504.025
743.462	498.175
743.590	495.788
743.718	479.738
743.846	485.562
743.974	486.012
744.102	472.712
744.230	477.675
744.358	469.687
744.487	478.687
744.615	471.000
744.743	472.750
744.871	465.800
744.999	465.200
745.127	459.225
745.255	453.312
745.383	463.975
745.512	456.675
745.640	447.012
745.768	444.262
745.896	443.425
746.024	437.375
746.152	441.050
746.280	437.587
746.408	444.437
746.537	439.087
746.665	443.200
746.793	431.587
746.921	427.712
747.049	423.225
747.177	426.300
747.305	417.962
747.433	420.775
747.562	412.437
747.690	411.500
747.818	417.475
747.946	414.488
748.074	422.200
748.202	407.812
748.330	403.250
748.458	408.113
748.587	407.950
748.715	389.437
748.843	398.575
748.971	395.875
749.099	391.250
749.227	386.712
749.355	381.875
749.483	391.700
749.612	385.850
749.740	376.488
749.868	377.462
749.996	369.700
750.124	380.600
750.252	376.450
750.380	377.562
750.508	365.525
750.637	360.425
750.765	366.550
750.893	358.937
751.021	361.400
751.149	362.850
751.277	369.650
751.405	363.700
751.533	366.825
751.662	357.762
751.790	367.812
751.918	365.163
752.046	351.900
752.174	345.825
752.302	351.725
752.430	347.675
752.558	339.500
752.687	341.413
752.815	351.788
752.943	342.337
753.071	331.462
753.199	336.238
753.327	344.262
753.455	328.300
753.583	326.675
753.712	328.625
753.840	322.775
753.968	324.238
754.096	317.200
754.224	325.700
754.352	314.363
754.480	314.488
754.608	313.300
754.737	315.300
754.865	317.913
754.993	320.187
755.121	308.212
755.249	314.575
755.377	306.625
755.505	307.562
755.633	322.375
755.762	301.512
755.890	317.187
756.018	310.413
756.146	306.750
756.274	302.812
756.402	293.300
756.530	298.150
756.658	304.462
756.787	292.137
756.915	285.550
757.043	291.325
757.171	291.950
757.299	290.150
757.427	290.962
757.555	287.100
757.683	290.687
757.812	285.113
757.940	290.525
758.068	279.812
758.196	275.550
758.324	280.525
758.452	274.738
758.580	276.012
758.708	279.637
758.837	274.038
758.965	283.062
759.093	272.250
759.221	267.462
759.349	271.350
759.477	260.075
759.605	269.488
759.733	267.725
759.862	266.600
759.990	260.113
760.118	265.837
760.246	260.538
760.374	267.538
760.502	258.500
760.630	257.225
760.758	251.725
760.887	254.400
761.015	256.038
761.143	256.038
761.271	254.988
761.399	248.012
761.527	250.113
761.655	247.262
761.783	248.488
761.912	241.050
762.040	246.312
762.168	250.713
762.296	242.675
762.424	238.838
762.552	234.150
762.680	249.662
762.808	233.500
762.937	240.912
763.065	238.225
763.193	237.338
763.321	235.100
763.449	230.025
763.577	231.213
763.705	237.850
763.833	254.488
763.962	225.262
764.090	228.662
764.218	229.350
764.346	229.575
764.474	225.525
764.602	225.713
764.730	225.225
764.858	225.850
764.987	230.312
765.115	230.012
765.243	232.262
765.371	220.700
765.499	215.762
765.627	220.975
765.755	219.387
765.883	214.062
766.012	216.200
766.140	214.275
766.268	211.050
766.396	210.713
766.524	212.687
766.652	206.838
766.780	207.262
766.908	208.950
767.037	214.725
767.165	210.963
767.293	217.512
767.421	208.613
767.549	201.175
767.677	211.350
767.805	199.662
767.933	206.800
768.062	207.238
768.190	205.650
768.318	199.287
768.446	216.937
768.574	210.512
768.702	206.213
768.830	197.738
768.958	198.350
769.087	203.887
769.215	199.412
769.343	196.625
769.471	196.200
769.599	200.838
769.727	193.925
769.855	198.050
769.983	195.375
770.112	191.412
770.240	197.113
770.368	193.575
770.496	190.213
770.624	190.187
770.752	194.637
770.880	199.887
771.008	190.687
771.137	195.113
771.265	190.550
771.393	184.787
771.521	190.762
771.649	188.250
771.777	191.062
771.905	188.613
772.033	190.113
772.162	191.738
772.290	187.400
772.418	195.400
772.546	180.887
772.674	185.175
772.802	184.137
772.930	187.437
773.058	183.200
773.187	184.300
773.315	185.863
773.443	180.312
773.571	178.875
773.699	176.537
773.827	181.363
773.955	186.312
774.083	194.050
774.212	177.500
774.340	178.275
774.468	176.738
774.596	180.800
774.724	187.575
774.852	175.012
774.980	178.850
775.108	179.238
775.237	171.488
775.365	174.800
775.493	175.675
775.621	176.800
775.749	175.675
775.877	177.738
776.005	172.238
776.133	178.550
776.262	177.000
776.390	167.000
776.518	176.637
776.646	171.300
776.774	173.425
776.902	177.037
777.030	171.025
777.158	169.200
777.287	172.887
777.415	169.963
777.543	167.100
777.671	163.562
777.799	166.963
777.927	168.475
778.055	174.338
778.183	170.512
778.312	163.387
778.440	165.162
778.568	169.625
778.696	160.863
778.824	170.812
778.952	163.875
779.080	162.050
779.208	171.012
779.337	167.900
779.465	166.963
779.593	166.037
779.721	172.100
779.849	160.637
779.977	165.912
780.105	158.325
780.233	164.000
780.362	170.300
780.490	167.238
780.618	160.963
780.746	162.125
780.874	160.100
781.002	160.900
781.130	159.662
781.258	155.963
781.387	162.900
781.515	157.863
781.643	159.838
781.771	166.100
781.899	161.950
782.027	160.225
782.155	159.613
782.283	153.238
782.412	157.750
782.540	161.275
782.668	161.275
782.796	154.088
782.924	155.500
783.052	150.450
783.180	156.912
783.308	153.550
783.437	155.037
783.565	156.500
783.693	155.550
783.821	157.512
783.949	156.613
784.077	155.100
784.205	156.450
784.333	162.725
784.462	148.175
784.590	158.812
784.718	154.450
784.846	148.613
784.974	155.588
785.102	161.613
785.230	151.350
785.358	161.838
785.487	151.350
785.615	153.238
785.743	145.488
785.871	145.287
785.999	153.225
786.127	145.113
786.255	156.400
786.383	155.187
786.512	147.725
786.640	148.475
786.768	154.437
786.896	145.600
787.024	149.387
787.152	142.713
787.280	146.213
787.408	146.950
787.537	144.312
787.665	145.937
787.793	148.050
787.921	151.312
788.049	142.662
788.177	141.825
788.305	143.937
788.433	146.150
788.562	145.875
788.690	142.412
788.818	143.088
788.946	143.787
789.074	142.225
789.202	144.200
789.330	144.775
789.458	142.937
789.587	137.937
789.715	144.738
789.843	146.275
789.971	142.137
790.099	139.162
790.227	143.050
790.355	139.963
790.483	145.687
790.612	141.625
790.740	142.287
790.868	146.775
790.996	139.500
791.124	144.575
791.252	140.537
791.380	143.650
791.508	135.700
791.637	150.875
791.765	137.225
791.893	135.762
792.021	145.850
792.149	138.175
792.277	138.037
792.405	136.838
792.533	145.875
792.662	134.825
792.790	135.950
792.918	145.963
793.046	133.363
793.174	137.537
793.302	138.900
793.430	139.662
793.558	146.113
793.687	134.850
793.815	139.025
793.943	136.512
794.071	139.037
794.199	131.000
794.327	135.550
794.455	150.463
794.583	150.200
794.712	141.400
794.840	134.387
794.968	134.400
795.096	138.463
795.224	136.012
795.352	131.812
795.480	138.162
795.608	134.787
795.737	138.475
795.865	138.437
795.993	131.450
796.121	132.000
796.249	134.437
796.377	134.700
796.505	139.437
796.633	134.300
796.762	134.025
796.890	140.550
797.018	132.588
797.146	130.637
797.274	128.537
797.402	131.637
797.530	134.937
797.658	130.037
797.787	138.762
797.915	131.550
798.043	138.125
798.171	138.037
798.299	131.000
798.427	132.075
798.555	130.262
798.683	126.687
798.812	133.312
798.940	133.475
799.068	131.725
799.196	135.175
799.324	124.987
799.452	135.050
799.580	131.625
799.708	137.088
799.837	124.425
799.965	125.600
800.093	127.362
800.221	130.325
800.349	132.012
800.477	130.137
800.605	130.738
800.733	131.887
800.862	128.387
800.990	145.762
801.118	130.125
801.246	124.775
801.374	128.463
801.502	132.213
801.630	125.162
801.758	125.737
801.887	130.687
802.015	126.737
802.143	128.250
802.271	129.025
802.399	128.437
802.527	132.062
802.655	129.762
802.783	135.887
802.912	128.463
803.040	128.262
803.168	124.787
803.296	120.312
803.424	119.500
803.552	123.900
803.680	120.713
803.808	125.175
803.937	126.912
804.065	123.987
804.193	125.050
804.321	136.812
804.449	125.388
804.577	125.325
804.705	124.862
804.833	128.512
804.962	121.700
805.090	120.138
805.218	126.900
805.346	124.388
805.474	125.000
805.602	136.100
805.730	123.237
805.858	123.912
805.987	132.738
806.115	124.650
806.243	125.000
806.371	117.250
806.499	121.425
806.627	118.912
806.755	128.175
806.883	120.825
807.012	121.825
807.140	119.150
807.268	117.612
807.396	122.388
807.524	117.175
807.652	122.400
807.780	133.650
807.908	121.500
808.037	126.800
808.165	122.487
808.293	122.862
808.421	130.312
808.549	117.925
808.677	115.888
808.805	129.838
808.933	119.487
809.062	121.812
809.190	140.275
809.318	124.388
809.446	122.500
809.574	119.275
809.702	120.412
809.830	115.763
809.958	124.338
810.087	118.612
810.215	124.300
810.343	130.937
810.471	121.850
810.599	114.838
810.727	114.375
810.855	114.900
810.983	121.625
811.112	119.025
811.240	117.687
811.368	121.112
811.496	128.275
811.624	120.475
811.752	119.737
811.880	114.050
812.008	116.675
812.137	119.800
812.265	118.050
812.393	121.325
812.521	118.812
812.649	119.013
812.777	114.625
812.905	123.787
813.033	116.362
813.162	114.062
813.290	114.237
813.418	113.737
813.546	115.950
813.674	115.375
813.802	120.475
813.930	118.338
814.058	112.263
814.187	113.013
814.315	115.225
814.443	115.250
814.571	112.725
814.699	122.888
814.827	114.375
814.955	121.312
815.083	117.925
815.212	115.875
815.340	114.975
815.468	112.412
815.596	113.650
815.724	111.312
815.852	121.350
815.980	113.500
816.108	116.350
816.237	119.112
816.365	118.750
816.493	119.425
816.621	115.013
816.749	113.263
816.877	115.088
817.005	118.937
817.133	118.250
817.262	113.025
817.390	114.950
817.518	114.425
817.646	119.825
817.774	114.625
817.902	118.162
818.030	113.888
818.158	117.100
818.287	111.775
818.415	110.763
818.543	112.025
818.671	121.287
818.799	113.475
818.927	119.175
819.055	112.725
819.183	111.575
819.312	111.875
819.440	113.138
819.568	113.625
819.696	118.750
819.824	115.687
819.952	113.175
820.080	112.300
820.208	112.875
820.337	113.862
820.465	117.150
820.593	112.650
820.721	113.725
820.849	113.300
820.977	110.475
821.105	110.187
821.233	111.162
821.362	120.650
821.490	113.737
821.618	114.437
821.746	112.062
821.874	112.525
822.002	113.775
822.130	115.350
822.258	109.737
822.387	112.725
822.515	110.500
822.643	112.500
822.771	107.737
822.899	109.075
823.027	108.862
823.155	108.812
823.283	113.662
823.412	114.237
823.540	114.375
823.668	122.650
823.796	110.737
823.924	112.775
824.052	118.112
824.180	108.275
824.308	107.463
824.437	110.713
824.565	111.013
824.693	112.575
824.821	110.125
824.949	114.713
825.077	109.187
825.205	115.000
825.333	112.700
825.462	112.150
825.590	108.800
825.718	117.612
825.846	114.775
825.974	110.838
826.102	113.237
826.230	111.950
826.358	108.600
826.487	115.687
826.615	108.875
826.743	110.138
826.871	116.362
826.999	113.862
827.127	114.100
827.255	108.737
827.383	108.775
827.512	112.312
827.640	113.350
827.768	109.550
827.896	109.425
828.024	110.925
828.152	110.888
828.280	111.700
828.408	109.875
828.537	108.900
828.665	107.975
828.793	107.625
828.921	110.912
829.049	108.625
829.177	106.375
829.305	107.775
829.433	110.200
829.562	105.812
829.690	109.588
829.818	111.787
829.946	111.237
830.074	107.562
830.202	110.562
830.330	112.662
830.458	116.912
830.587	108.875
830.715	109.050
830.843	107.513
830.971	110.875
831.099	112.350
831.227	107.787
831.355	107.013
831.483	106.050
831.612	109.500
831.740	109.912
831.868	108.775
831.996	108.263
832.124	109.862
832.252	105.963
832.380	109.250
832.508	111.487
832.637	112.162
832.765	113.088
832.893	115.638
833.021	113.687
833.149	108.638
833.277	108.562
833.405	108.487
833.533	106.150
833.662	107.037
833.790	112.862
833.918	111.062
834.046	107.725
834.174	110.263
834.302	107.713
834.430	109.400
834.558	108.787
834.687	106.612
834.815	106.675
834.943	105.625
835.071	105.437
835.199	103.763
835.327	109.013
835.455	105.412
835.583	109.737
835.712	106.213
835.840	109.025
835.968	107.700
836.096	107.075
836.224	110.850
836.352	108.950
836.480	108.225
836.608	110.950
836.737	106.437
836.865	105.362
836.993	108.175
837.121	108.325
837.249	107.263
837.377	107.013
837.505	109.150
837.633	108.162
837.762	106.500
837.890	115.475
838.018	114.600
838.146	106.500
838.274	107.150
838.402	105.725
838.530	105.300
838.658	105.800
838.787	107.425
838.915	108.912
839.043	110.763
839.171	110.950
839.299	106.725
839.427	108.912
839.555	112.537
839.683	109.200
839.812	107.338
839.940	105.537
840.068	107.350
840.196	106.350
840.324	112.950
840.452	109.812
840.580	111.112
840.708	110.525
840.837	111.475
840.965	111.225
841.093	111.412
841.221	108.900
841.349	110.225
841.477	111.112
841.605	107.125
841.733	105.838
841.862	107.350
841.990	109.187
842.118	109.062
842.246	104.912
842.374	104.763
842.502	105.937
842.630	107.100
842.758	109.450
842.887	108.088
843.015	108.800
843.143	109.388
843.271	107.912
843.399	109.725
843.527	105.888
843.655	106.437
843.783	106.350
843.912	105.562
844.040	109.500
844.168	113.562
844.296	111.825
844.424	108.800
844.552	109.100
844.680	112.463
844.808	111.388
844.937	107.763
845.065	107.763
845.193	108.562
845.321	107.013
845.449	107.862
845.577	107.850
845.705	109.838
845.833	108.987
845.962	108.950
846.090	105.750
846.218	107.513
846.346	109.425
846.474	107.025
846.602	105.450
846.730	104.987
846.858	105.300
846.987	107.225
847.115	106.650
847.243	110.812
847.371	111.187
847.499	106.062
847.627	104.350
847.755	103.987
847.883	106.200
848.012	112.037
848.140	110.750
848.268	106.737
848.396	108.400
848.524	104.362
848.652	106.862
848.780	104.450
848.908	108.675
849.037	108.250
849.165	105.450
849.293	107.550
849.421	111.487
849.549	108.513
849.677	107.750
849.805	113.925
849.933	106.675
850.062	105.562
850.190	106.987
850.318	109.662
850.446	107.037
850.574	103.662
850.702	105.638
850.830	108.775
850.958	108.612
851.087	106.888
851.215	110.875
851.343	107.062
851.471	107.975
851.599	108.450
851.727	109.950
851.855	106.975
851.983	107.237
852.112	107.713
852.240	108.700
852.368	108.050
852.496	103.812
852.624	105.725
852.752	104.187
852.880	105.800
853.008	108.525
853.137	108.775
853.265	106.437
853.393	111.187
853.521	113.075
853.649	113.475
853.777	107.138
853.905	107.175
854.033	104.963
854.162	107.162
854.290	108.388
854.418	105.200
854.546	106.450
854.674	108.162
854.802	106.187
854.930	107.375
855.058	102.263
855.187	104.013
855.315	104.600
855.443	103.763
855.571	103.000
855.699	104.150
855.827	105.400
855.955	103.562
856.083	104.425
856.212	105.338
856.340	107.350
856.468	111.487
856.596	107.775
856.724	107.300
856.852	106.725
856.980	107.025
857.108	106.475
857.237	106.763
857.365	109.075
857.493	106.225
857.621	107.513
857.749	107.425
857.877	109.287
858.005	108.475
858.133	108.162
858.262	106.612
858.390	105.138
858.518	103.450
858.646	107.275
858.774	106.800
858.902	107.437
859.030	106.763
859.158	106.100
859.287	108.350
859.415	108.112
859.543	105.487
859.671	109.388
859.799	111.263
859.927	107.150
860.055	108.600
860.183	104.875
860.312	106.687
860.440	106.850
860.568	109.388
860.696	108.200
860.824	121.062
860.952	103.287
861.080	106.412
861.208	106.325
861.337	107.400
861.465	107.412
861.593	111.175
861.721	106.925
861.849	105.450
861.977	107.575
862.105	105.700
862.233	106.838
862.362	106.937
862.490	105.763
862.618	104.013
862.746	105.350
862.874	105.550
863.002	110.112
863.130	110.375
863.258	105.325
863.387	108.862
863.515	105.763
863.643	104.300
863.771	104.912
863.899	106.088
864.027	104.763
864.155	106.600
864.283	105.250
864.412	106.737
864.540	104.588
864.668	103.550
864.796	105.862
864.924	106.562
865.052	103.687
865.180	104.312
865.308	102.963
865.437	104.775
865.565	107.225
865.693	106.075
865.821	105.638
865.949	105.237
866.077	105.562
866.205	103.625
866.333	104.375
866.462	105.850
866.590	106.388
866.718	107.300
866.846	105.237
866.974	106.287
867.102	111.725
867.230	107.088
867.358	103.963
867.487	105.775
867.615	105.250
867.743	107.300
867.871	105.437
867.999	105.900
868.127	105.862
868.255	116.138
868.383	110.850
868.512	105.662
868.640	105.625
868.768	107.000
868.896	106.200
869.024	106.812
869.152	111.912
869.280	105.638
869.408	106.575
869.537	105.350
869.665	109.138
869.793	106.975
869.921	107.112
870.049	107.838
870.177	107.525
870.305	115.575
870.433	106.737
870.562	105.425
870.690	105.787
870.818	104.550
870.946	106.575
871.074	107.050
871.202	105.588
871.330	104.562
871.458	102.888
871.587	104.775
871.715	104.662
871.843	106.812
871.971	107.650
872.099	107.812
872.227	108.963
872.355	106.975
872.483	106.050
872.612	105.838
872.740	109.300
872.868	104.537
872.996	104.463
873.124	108.400
873.252	106.638
873.380	109.463
873.508	107.150
873.637	107.625
873.765	108.338
873.893	108.362
874.021	108.862
874.149	106.062
874.277	107.400
874.405	112.600
874.533	106.812
874.662	331.175
874.790	106.787
874.918	114.013
875.046	108.312
875.174	108.263
875.302	104.825
875.430	107.237
875.558	107.350
875.687	108.025
875.815	108.263
875.943	107.412
876.071	106.088
876.199	106.963
876.327	105.600
876.455	106.638
876.583	109.600
876.712	107.237
876.840	108.287
876.968	106.825
877.096	107.088
877.224	105.475
877.352	104.412
877.480	106.350
877.608	104.638
877.737	106.187
877.865	107.625
877.993	108.862
878.121	106.338
878.249	105.350
878.377	105.825
878.505	106.750
878.633	104.100
878.762	105.200
878.890	104.612
879.018	103.925
879.146	106.787
879.274	105.987
879.402	106.838
879.530	106.225
879.658	107.675
879.787	109.487
879.915	106.463
880.043	105.500
880.171	104.225
880.299	106.825
880.427	109.037
880.555	109.775
880.683	108.850
880.812	106.425
880.940	106.000
881.068	106.300
881.196	106.425
881.324	106.562
881.452	105.150
881.580	107.312
881.708	109.187
881.837	108.612
881.965	107.737
882.093	106.800
882.221	105.213
882.349	110.750
882.477	111.037
882.605	113.075
882.733	106.562
882.862	107.662
882.990	104.325
883.118	107.925
883.246	107.750
883.374	108.025
883.502	104.612
883.630	103.650
883.758	105.862
883.887	103.588
884.015	104.100
884.143	105.437
884.271	107.125
884.399	105.713
884.527	105.200
884.655	107.287
884.783	107.888
884.912	106.325
885.040	105.425
885.168	105.225
885.296	104.950
885.424	106.138
885.552	107.700
885.680	106.787
885.808	105.287
885.937	110.112
886.065	107.350
886.193	104.500
886.321	104.763
886.449	105.463
886.577	108.250
886.705	109.338
886.833	107.437
886.962	106.125
887.090	108.500
887.218	105.800
887.346	107.013
887.474	110.600
887.602	108.312
887.730	103.562
887.858	105.088
887.987	108.888
888.115	110.037
888.243	108.713
888.371	108.425
888.499	109.050
888.627	106.075
888.755	109.162
888.883	107.263
889.012	106.263
889.140	106.950
889.268	115.325
889.396	109.513
889.524	106.463
889.652	104.075
889.780	104.987
889.908	105.912
890.037	105.888
890.165	107.600
890.293	109.287
890.421	106.687
890.549	106.963
890.677	106.700
890.805	104.500
890.933	106.875
891.062	105.725
891.190	107.138
891.318	111.300
891.446	108.675
891.574	104.950
891.702	105.125
891.830	106.287
891.958	108.675
892.087	110.775
892.215	108.537
892.343	106.850
892.471	105.925
892.599	108.175
892.727	112.200
892.855	109.162
892.983	106.888
893.112	107.350
893.240	106.300
893.368	107.450
893.496	108.463
893.624	109.475
893.752	109.088
893.880	110.487
894.008	105.475
894.137	108.350
894.265	107.412
894.393	105.425
894.521	107.150
894.649	106.838
894.777	105.513
894.905	107.025
895.033	114.525
895.162	110.775
895.290	109.062
895.418	112.138
895.546	109.737
895.674	111.638
895.802	106.312
895.930	105.088
896.058	104.187
896.187	105.000
896.315	108.750
896.443	107.612
896.571	108.963
896.699	106.875
896.827	106.162
896.955	108.775
897.083	107.263
897.212	106.487
897.340	105.287
897.468	106.013
897.596	105.412
897.724	107.013
897.852	115.175
897.980	109.000
898.108	108.037
898.237	106.838
898.365	105.088
898.493	108.213
898.621	106.850
898.749	105.525
898.877	107.213
899.005	106.400
899.133	105.312
899.262	106.875
899.390	105.888
899.518	104.862
899.646	106.312
899.774	113.162
899.902	119.900
900.030	108.350
900.158	110.463
900.287	110.013
900.415	107.675
900.543	107.612
900.671	112.287
900.799	109.263
900.927	108.775
901.055	108.112
901.183	108.675
901.312	106.100
901.440	109.900
901.568	109.975
901.696	108.412
901.824	108.437
901.952	115.250
902.080	107.450
902.208	107.737
902.337	109.737
902.465	112.025
902.593	113.625
902.721	109.013
902.849	108.638
902.977	108.638
903.105	114.312
903.233	115.362
903.362	110.562
903.490	109.263
903.618	106.800
903.746	113.700
903.874	107.175
904.002	109.588
904.130	112.213
904.258	107.575
904.387	108.263
904.515	106.562
904.643	108.138
904.771	107.325
904.899	109.088
905.027	107.937
905.155	106.138
905.283	107.675
905.412	110.787
905.540	109.013
905.668	105.513
905.796	105.625
905.924	107.112
906.052	106.975
906.180	108.700
906.308	108.588
906.437	114.187
906.565	112.550
906.693	109.138
906.821	107.263
906.949	107.200
907.077	109.675
907.205	111.925
907.333	110.775
907.462	108.750
907.590	111.237
907.718	109.700
907.846	108.025
907.974	109.325
908.102	111.200
908.230	110.138
908.358	115.963
908.487	111.925
908.615	110.700
908.743	109.013
908.871	118.950
908.999	111.362
909.127	110.713
909.255	107.612
909.383	106.662
909.512	110.875
909.640	109.950
909.768	111.775
909.896	121.662
910.024	112.838
910.152	113.588
910.280	120.963
910.408	109.100
910.537	120.937
910.665	115.562
910.793	112.987
910.921	114.350
911.049	113.800
911.177	109.162
911.305	110.175
911.433	112.513
911.562	111.300
911.690	109.000
911.818	120.625
911.946	110.725
912.074	111.037
912.202	110.700
912.330	108.650
912.458	110.400
912.587	117.463
912.715	119.650
912.843	116.600
912.971	112.362
913.099	113.400
913.227	115.025
913.355	115.062
913.483	111.888
913.612	111.200
913.740	127.138
913.868	112.862
