sample11_PP_at_750.00nm_cut_at_1008.00Y_02.dat
15.05.2023
11:09:10
cut middle at Y: 1008.00
top cursor: 1048 down cursor: 968 mean of: 80 lines , 2560 datapoints
wavelength(nm)	intensity[arb. units]
585.996	1055.025
586.124	1039.838
586.252	1032.850
586.380	1032.525
586.508	1038.850
586.637	1046.750
586.765	1054.862
586.893	1053.187
587.021	1045.900
587.149	1058.713
587.277	1055.250
587.405	1051.850
587.533	1050.037
587.662	1057.300
587.790	1067.500
587.918	1064.025
588.046	1064.388
588.174	1059.088
588.302	1075.388
588.430	1074.687
588.558	1068.912
588.687	1070.987
588.815	1102.812
588.943	1075.650
589.071	1083.450
589.199	1090.375
589.327	1080.263
589.455	1076.562
589.583	1097.912
589.712	1087.588
589.840	1087.263
589.968	1084.525
590.096	1092.625
590.224	1095.725
590.352	1094.662
590.480	1092.338
590.608	1102.187
590.737	1085.562
590.865	1101.362
590.993	1104.975
591.121	1107.612
591.249	1109.450
591.377	1111.987
591.505	1113.475
591.633	1118.100
591.762	1114.125
591.890	1119.562
592.018	1114.312
592.146	1117.650
592.274	1136.575
592.402	1125.250
592.530	1134.300
592.658	1139.588
592.787	1129.575
592.915	1136.575
593.043	1144.162
593.171	1141.525
593.299	1164.625
593.427	1138.187
593.555	1154.675
593.683	1148.725
593.812	1155.713
593.940	1171.250
594.068	1164.263
594.196	1190.650
594.324	1163.763
594.452	1184.700
594.580	1182.450
594.708	1177.250
594.837	1201.675
594.965	1191.475
595.093	1203.263
595.221	1203.225
595.349	1209.987
595.477	1215.675
595.605	1201.250
595.733	1232.263
595.862	1225.013
595.990	1226.250
596.118	1230.225
596.246	1243.500
596.374	1253.662
596.502	1255.812
596.630	1250.325
596.758	1265.775
596.887	1249.487
597.015	1280.037
597.143	1254.162
597.271	1268.763
597.399	1278.400
597.527	1273.800
597.655	1275.550
597.783	1281.100
597.912	1263.025
598.040	1276.300
598.168	1281.862
598.296	1289.900
598.424	1287.963
598.552	1295.162
598.680	1283.475
598.808	1282.338
598.937	1308.450
599.065	1291.850
599.193	1289.987
599.321	1283.850
599.449	1299.300
599.577	1297.062
599.705	1295.475
599.833	1299.138
599.962	1295.187
600.090	1302.275
600.218	1305.412
600.346	1315.000
600.474	1317.687
600.602	1324.400
600.730	1315.425
600.858	1325.463
600.987	1320.312
601.115	1324.562
601.243	1327.537
601.371	1328.213
601.499	1337.287
601.627	1340.475
601.755	1363.200
601.883	1347.162
602.012	1360.588
602.140	1362.638
602.268	1360.513
602.396	1380.362
602.524	1371.987
602.652	1372.700
602.780	1384.175
602.908	1396.862
603.037	1394.687
603.165	1411.838
603.293	1427.412
603.421	1422.325
603.549	1421.763
603.677	1442.425
603.805	1418.987
603.933	1438.300
604.062	1452.412
604.190	1474.225
604.318	1443.250
604.446	1468.013
604.574	1469.713
604.702	1475.625
604.830	1486.000
604.958	1497.638
605.087	1506.450
605.215	1516.088
605.343	1513.013
605.471	1518.638
605.599	1524.375
605.727	1533.388
605.855	1553.650
605.983	1531.225
606.112	1562.000
606.240	1558.100
606.368	1567.787
606.496	1570.800
606.624	1565.350
606.752	1583.675
606.880	1587.638
607.008	1592.625
607.137	1606.975
607.265	1612.287
607.393	1618.338
607.521	1605.412
607.649	1616.800
607.777	1604.638
607.905	1623.475
608.033	1622.987
608.162	1635.588
608.290	1628.600
608.418	1644.312
608.546	1646.338
608.674	1675.075
608.802	1643.800
608.930	1654.513
609.058	1653.875
609.187	1657.737
609.315	1654.987
609.443	1668.200
609.571	1671.250
609.699	1679.150
609.827	1679.950
609.955	1669.888
610.083	1678.850
610.212	1688.888
610.340	1710.350
610.468	1696.437
610.596	1713.800
610.724	1695.600
610.852	1726.700
610.980	1707.138
611.108	1721.175
611.237	1726.763
611.365	1740.513
611.493	1713.437
611.621	1743.025
611.749	1756.013
611.877	1753.450
612.005	1761.763
612.133	1766.437
612.262	1764.450
612.390	1781.787
612.518	1791.713
612.646	1790.713
612.774	1791.375
612.902	1788.200
613.030	1800.437
613.158	1806.100
613.287	1845.388
613.415	1840.162
613.543	1851.675
613.671	1843.662
613.799	1870.912
613.927	1854.612
614.055	1870.787
614.183	1901.013
614.312	1877.750
614.440	1901.975
614.568	1898.000
614.696	1922.350
614.824	1916.687
614.952	1921.787
615.080	1937.612
615.208	1951.400
615.337	1968.475
615.465	1959.737
615.593	1984.475
615.721	1994.075
615.849	1998.125
615.977	2021.700
616.105	1997.675
616.233	2027.100
616.362	2046.912
616.490	2041.725
616.618	2050.662
616.746	2036.088
616.874	2083.387
617.002	2080.588
617.130	2094.012
617.258	2082.613
617.387	2098.450
617.515	2103.162
617.643	2120.075
617.771	2123.387
617.899	2147.325
618.027	2130.975
618.155	2158.562
618.283	2156.925
618.412	2163.512
618.540	2191.850
618.668	2191.738
618.796	2190.850
618.924	2205.137
619.052	2218.675
619.180	2214.575
619.308	2220.875
619.437	2209.575
619.565	2238.463
619.693	2241.912
619.821	2239.937
619.949	2251.088
620.077	2266.425
620.205	2277.600
620.333	2282.562
620.462	2284.025
620.590	2309.475
620.718	2304.338
620.846	2313.800
620.974	2364.613
621.102	2317.675
621.230	2318.400
621.358	2388.625
621.487	2348.887
621.615	2339.412
621.743	2371.887
621.871	2372.550
621.999	2389.613
622.127	2388.363
622.255	2395.000
622.383	2404.363
622.512	2418.287
622.640	2440.350
622.768	2408.963
622.896	2415.437
623.024	2427.175
623.152	2489.325
623.280	2456.725
623.408	2466.950
623.537	2475.713
623.665	2482.525
623.793	2509.550
623.921	2496.025
624.049	2500.287
624.177	2518.312
624.305	2555.363
624.433	2562.475
624.562	2566.225
624.690	2538.675
624.818	2575.650
624.946	2660.187
625.074	2607.250
625.202	2589.637
625.330	2596.600
625.458	2618.762
625.587	2624.287
625.715	2641.887
625.843	2705.925
625.971	2652.950
626.099	2645.650
626.227	2681.725
626.355	2649.275
626.483	2761.662
626.612	2670.075
626.740	2663.687
626.868	2736.675
626.996	2697.912
627.124	2714.525
627.252	2704.912
627.380	2755.437
627.508	2770.875
627.637	2744.113
627.765	2773.588
627.893	2821.187
628.021	2779.588
628.149	2828.363
628.277	2840.625
628.405	2909.113
628.533	2797.238
628.662	2878.975
628.790	2843.338
628.918	2853.475
629.046	2876.800
629.174	2876.863
629.302	3015.012
629.430	2889.937
629.558	2922.250
629.687	2966.162
629.815	2958.262
629.943	3020.213
630.071	3023.787
630.199	3008.812
630.327	3052.450
630.455	3030.113
630.583	3115.675
630.712	3077.525
630.840	3091.262
630.968	3142.812
631.096	3116.062
631.224	3136.125
631.352	3152.713
631.480	3154.062
631.608	3183.550
631.737	3281.012
631.865	3385.037
631.993	3210.850
632.121	3336.800
632.249	3345.088
632.377	3306.275
632.505	3340.550
632.633	3276.200
632.762	3357.037
632.890	3465.762
633.018	3324.588
633.146	3452.850
633.274	3440.300
633.402	3436.787
633.530	3400.113
633.658	3574.750
633.787	3416.650
633.915	3502.787
634.043	3451.950
634.171	3481.963
634.299	3509.312
634.427	3609.363
634.555	3551.375
634.683	3517.375
634.812	3551.887
634.940	3578.637
635.068	3529.450
635.196	3591.762
635.324	3584.812
635.452	3678.825
635.580	3619.588
635.708	3624.838
635.837	3687.450
635.965	3664.325
636.093	3657.937
636.221	3623.850
636.349	3744.963
636.477	3638.350
636.605	3834.650
636.733	3651.637
636.862	3694.000
636.990	3718.537
637.118	3796.562
637.246	3751.200
637.374	3715.213
637.502	3758.488
637.630	3732.012
637.758	3769.625
637.887	3758.363
638.015	3754.375
638.143	3822.012
638.271	3798.275
638.399	3800.537
638.527	3813.588
638.655	3811.450
638.783	3972.850
638.912	3860.088
639.040	3888.400
639.168	3938.588
639.296	3863.750
639.424	4036.387
639.552	3899.363
639.680	3926.037
639.808	3974.662
639.937	3951.950
640.065	3967.162
640.193	4070.312
640.321	3978.375
640.449	4036.012
640.577	4101.900
640.705	4058.225
640.833	4164.288
640.962	4050.088
641.090	4058.963
641.218	4080.200
641.346	4131.700
641.474	4155.700
641.602	4141.812
641.730	4155.775
641.858	4180.625
641.987	4235.075
642.115	4188.250
642.243	4261.600
642.371	4257.200
642.499	4261.225
642.627	4324.100
642.755	4383.363
642.883	4411.600
643.012	4345.725
643.140	4342.913
643.268	4377.363
643.396	4408.413
643.524	4543.050
643.652	4471.937
643.780	4435.837
643.908	4470.175
644.037	4620.988
644.165	4512.875
644.293	4528.637
644.421	4551.637
644.549	4631.925
644.677	4583.100
644.805	4624.312
644.933	4601.437
645.062	4644.337
645.190	4642.812
645.318	4757.337
645.446	4708.163
645.574	4747.738
645.702	4719.512
645.830	4924.363
645.958	4739.613
646.087	4974.663
646.215	4780.975
646.343	4985.825
646.471	4896.600
646.599	4907.000
646.727	4861.650
646.855	4903.475
646.983	4940.462
647.112	4915.650
647.240	5123.200
647.368	4967.312
647.496	5038.712
647.624	4974.500
647.752	4983.025
647.880	5012.225
648.008	5008.350
648.137	5035.700
648.265	5031.562
648.393	5063.788
648.521	5086.125
648.649	5111.425
648.777	5154.425
648.905	5105.375
649.033	5136.225
649.162	5172.062
649.290	5180.363
649.418	5227.512
649.546	5232.050
649.674	5284.637
649.802	5216.400
649.930	5380.387
650.058	5220.387
650.187	5261.225
650.315	5229.775
650.443	5318.775
650.571	5286.712
650.699	5288.587
650.827	5266.637
650.955	5312.175
651.083	5327.288
651.212	5394.750
651.340	5431.150
651.468	5375.850
651.596	5385.275
651.724	5356.300
651.852	5379.812
651.980	5370.250
652.108	5490.450
652.237	5450.137
652.365	5541.113
652.493	5424.175
652.621	5459.337
652.749	5530.650
652.877	5428.163
653.005	5500.462
653.133	5474.950
653.262	5517.675
653.390	5456.700
653.518	5598.950
653.646	5531.637
653.774	5722.675
653.902	5581.075
654.030	5526.850
654.158	5556.687
654.287	5572.187
654.415	5609.413
654.543	5628.725
654.671	5661.775
654.799	5647.887
654.927	5595.863
655.055	5595.913
655.183	5692.025
655.312	5657.025
655.440	5703.238
655.568	5704.175
655.696	5777.600
655.824	5816.587
655.952	5709.875
656.080	5677.400
656.208	5893.250
656.337	5749.387
656.465	5794.288
656.593	5844.587
656.721	5790.562
656.849	5852.087
656.977	5786.575
657.105	5862.075
657.233	5772.000
657.362	5819.863
657.490	5825.300
657.618	5851.825
657.746	5863.087
657.874	5845.712
658.002	5857.762
658.130	5882.238
658.258	5881.350
658.387	5899.687
658.515	5888.113
658.643	5950.900
658.771	5937.375
658.899	5939.113
659.027	5969.825
659.155	5943.062
659.283	6145.738
659.412	5992.475
659.540	6130.425
659.668	5984.613
659.796	6024.825
659.924	6087.925
660.052	6061.988
660.180	6050.575
660.308	6054.800
660.437	6087.625
660.565	6066.400
660.693	6084.837
660.821	6077.500
660.949	6101.400
661.077	6084.012
661.205	6145.750
661.333	6090.087
661.462	6238.262
661.590	6168.488
661.718	6351.400
661.846	6269.625
661.974	6339.800
662.102	6185.100
662.230	6241.387
662.358	6232.238
662.487	6216.325
662.615	6215.113
662.743	6184.100
662.871	6236.262
662.999	6219.238
663.127	6226.550
663.255	6364.125
663.383	6365.925
663.512	6279.925
663.640	6322.488
663.768	6279.400
663.896	6315.800
664.024	6378.238
664.152	6321.925
664.280	6374.962
664.408	6358.025
664.537	6379.200
664.665	6326.288
664.793	6313.863
664.921	6345.825
665.049	6382.788
665.177	6371.988
665.305	6398.262
665.433	6425.238
665.562	6378.175
665.690	6399.050
665.818	6605.937
665.946	6444.613
666.074	6414.512
666.202	6424.050
666.330	6489.163
666.458	6441.775
666.587	6418.950
666.715	6457.863
666.843	6447.250
666.971	6438.000
667.099	6479.788
667.227	6460.425
667.355	6507.225
667.483	6512.450
667.612	6513.425
667.740	6534.937
667.868	6561.275
667.996	6508.663
668.124	6499.825
668.252	6494.087
668.380	6485.788
668.508	6536.775
668.637	6549.413
668.765	6486.863
668.893	6545.863
669.021	6496.038
669.149	6598.038
669.277	6604.700
669.405	6510.038
669.533	6541.413
669.662	6798.988
669.790	6553.613
669.918	6645.988
670.046	6523.637
670.174	6628.512
670.302	6622.450
670.430	6574.700
670.558	6601.450
670.687	6532.925
670.815	6682.375
670.943	6507.812
671.071	6546.425
671.199	6562.187
671.327	6500.500
671.455	6530.238
671.583	6504.600
671.712	6655.113
671.840	6528.613
671.968	6478.837
672.096	6499.000
672.224	6465.925
672.352	6652.988
672.480	6484.050
672.608	6438.937
672.737	6426.275
672.865	6610.587
672.993	6485.562
673.121	6419.950
673.249	6387.288
673.377	6383.700
673.505	6425.225
673.633	6413.113
673.762	6361.012
673.890	6362.137
674.018	6604.300
674.146	6388.175
674.274	6394.637
674.402	6574.312
674.530	6350.575
674.658	6377.425
674.787	6312.012
674.915	6292.200
675.043	6381.488
675.171	6345.437
675.299	6299.163
675.427	6326.500
675.555	6259.663
675.683	6293.475
675.812	6277.212
675.940	6257.587
676.068	6274.825
676.196	6237.137
676.324	6261.975
676.452	6251.962
676.580	6215.538
676.708	6240.062
676.837	6261.062
676.965	6177.875
677.093	6160.850
677.221	6184.163
677.349	6194.950
677.477	6235.675
677.605	6122.387
677.733	6192.600
677.862	6077.613
677.990	6083.800
678.118	6055.562
678.246	6090.800
678.374	6036.150
678.502	6003.350
678.630	5961.962
678.758	5959.350
678.887	5977.925
679.015	5966.250
679.143	5943.625
679.271	5912.187
679.399	5957.300
679.527	5954.663
679.655	5904.100
679.783	5938.113
679.912	5907.488
680.040	5890.800
680.168	5875.637
680.296	5887.887
680.424	5830.675
680.552	5871.887
680.680	5892.663
680.808	5761.887
680.937	5775.275
681.065	5755.025
681.193	5779.375
681.321	5792.062
681.449	5713.275
681.577	5732.900
681.705	5740.238
681.833	5688.250
681.962	5675.363
682.090	5851.950
682.218	5628.312
682.346	5636.250
682.474	5650.738
682.602	5619.312
682.730	5623.350
682.858	5581.488
682.987	5636.900
683.115	5617.350
683.243	5576.000
683.371	5552.175
683.499	5536.300
683.627	5583.825
683.755	5590.100
683.883	5665.863
684.012	5531.000
684.140	5499.312
684.268	5481.212
684.396	5509.837
684.524	5494.450
684.652	5530.062
684.780	5542.113
684.908	5514.900
685.037	5420.337
685.165	5405.937
685.293	5438.187
685.421	5503.475
685.549	5344.687
685.677	5371.337
685.805	5519.837
685.933	5397.738
686.062	5303.000
686.190	5336.337
686.318	5370.962
686.446	5316.925
686.574	5260.187
686.702	5361.375
686.830	5257.675
686.958	5250.113
687.087	5241.900
687.215	5265.525
687.343	5187.437
687.471	5200.913
687.599	5215.512
687.727	5350.875
687.855	5177.675
687.983	5195.525
688.112	5261.950
688.240	5106.975
688.368	5099.337
688.496	5150.100
688.624	5179.225
688.752	5036.975
688.880	5038.925
689.008	5032.562
689.137	5040.738
689.265	4984.437
689.393	4971.212
689.521	4970.012
689.649	4960.738
689.777	4927.625
689.905	4927.000
690.033	4903.700
690.162	4904.937
690.290	4875.512
690.418	4879.000
690.546	4870.050
690.674	4905.387
690.802	4808.075
690.930	4808.762
691.058	4822.212
691.187	4759.837
691.315	4740.887
691.443	4805.725
691.571	4749.425
691.699	4730.062
691.827	4738.312
691.955	4630.712
692.083	4647.400
692.212	4746.325
692.340	4581.275
692.468	4592.500
692.596	4610.475
692.724	4708.200
692.852	4497.800
692.980	4568.525
693.108	4529.025
693.237	4456.800
693.365	4463.325
693.493	4432.062
693.621	4435.525
693.749	4391.225
693.877	4384.975
694.005	4445.025
694.133	4354.275
694.262	4326.613
694.390	4265.163
694.518	4266.825
694.646	4261.250
694.774	4247.075
694.902	4351.012
695.030	4307.000
695.158	4203.962
695.287	4153.562
695.415	4145.038
695.543	4151.937
695.671	4200.238
695.799	4103.050
695.927	4096.538
696.055	4093.350
696.183	4090.275
696.312	4021.500
696.440	4217.163
696.568	4066.200
696.696	3987.925
696.824	3926.050
696.952	3916.950
697.080	3911.912
697.208	3872.988
697.337	3946.662
697.465	3880.500
697.593	3815.037
697.721	3778.738
697.849	3813.062
697.977	3799.425
698.105	3817.637
698.233	3730.562
698.362	3729.562
698.490	3712.275
698.618	3694.037
698.746	3773.838
698.874	3660.312
699.002	3806.437
699.130	3629.825
699.258	3642.463
699.387	3570.000
699.515	3573.675
699.643	3543.338
699.771	3600.275
699.899	3498.463
700.027	3527.262
700.155	3449.900
700.283	3460.387
700.412	3460.800
700.540	3466.025
700.668	3471.900
700.796	3397.575
700.924	3358.500
701.052	3377.238
701.180	3487.912
701.308	3370.550
701.437	3280.137
701.565	3260.412
701.693	3240.238
701.821	3236.900
701.949	3228.150
702.077	3240.012
702.205	3187.375
702.333	3187.475
702.462	3151.562
702.590	3186.525
702.718	3116.000
702.846	3118.588
702.974	3069.875
703.102	3078.012
703.230	3178.937
703.358	3112.137
703.487	3001.050
703.615	3230.488
703.743	3014.012
703.871	2972.225
703.999	3005.825
704.127	3036.225
704.255	2909.662
704.383	3093.175
704.512	2932.600
704.640	2897.675
704.768	2850.525
704.896	2919.875
705.024	2808.662
705.152	2887.100
705.280	2806.637
705.408	2754.812
705.537	2768.475
705.665	2738.512
705.793	2735.213
705.921	2686.238
706.049	2720.137
706.177	2672.562
706.305	2657.725
706.433	2741.300
706.562	2646.050
706.690	2623.125
706.818	2605.575
706.946	2729.325
707.074	2584.363
707.202	2564.062
707.330	2585.463
707.458	2537.588
707.587	2527.150
707.715	2522.350
707.843	2531.338
707.971	2532.838
708.099	2528.000
708.227	2469.450
708.355	2465.437
708.483	2467.425
708.612	2437.463
708.740	2441.075
708.868	2409.750
708.996	2429.075
709.124	2406.363
709.252	2372.613
709.380	2376.400
709.508	2330.550
709.637	2345.075
709.765	2328.512
709.893	2295.713
710.021	2297.725
710.149	2290.187
710.277	2305.475
710.405	2277.387
710.533	2245.037
710.662	2239.412
710.790	2247.637
710.918	2222.863
711.046	2209.262
711.174	2195.213
711.302	2183.750
711.430	2155.963
711.558	2160.863
711.687	2139.963
711.815	2128.037
711.943	2138.713
712.071	2109.312
712.199	2090.937
712.327	2080.950
712.455	2068.725
712.583	2070.500
712.712	2070.300
712.840	2044.800
712.968	2020.513
713.096	2032.138
713.224	2002.412
713.352	2005.287
713.480	1974.775
713.608	1974.750
713.737	1940.550
713.865	1931.925
713.993	1932.600
714.121	1918.713
714.249	1911.600
714.377	1895.088
714.505	1891.187
714.633	1869.662
714.762	1852.888
714.890	1866.850
715.018	1844.362
715.146	1830.463
715.274	1810.625
715.402	1815.588
715.530	1820.850
715.658	1789.225
715.787	1791.463
715.915	1785.487
716.043	1749.500
716.171	1771.175
716.299	1768.737
716.427	1735.150
716.555	1708.050
716.683	1695.850
716.812	1691.125
716.940	1687.263
717.068	1658.287
717.196	1664.812
717.324	1655.050
717.452	1649.625
717.580	1654.612
717.708	1623.112
717.837	1639.925
717.965	1614.525
718.093	1584.525
718.221	1582.325
718.349	1579.775
718.477	1561.763
718.605	1563.338
718.733	1541.687
718.862	1523.475
718.990	1522.250
719.118	1515.487
719.246	1497.200
719.374	1500.612
719.502	1497.088
719.630	1492.437
719.758	1470.025
719.887	1467.725
720.015	1465.925
720.143	1437.787
720.271	1436.162
720.399	1435.862
720.527	1424.013
720.655	1414.112
720.783	1396.787
720.912	1405.763
721.040	1393.225
721.168	1381.112
721.296	1368.088
721.424	1371.338
721.552	1350.250
721.680	1343.625
721.808	1338.775
721.937	1333.575
722.065	1322.825
722.193	1297.100
722.321	1307.475
722.449	1293.775
722.577	1281.700
722.705	1266.687
722.833	1263.487
722.962	1262.750
723.090	1240.700
723.218	1234.975
723.346	1235.400
723.474	1221.950
723.602	1226.100
723.730	1205.138
723.858	1215.900
723.987	1203.000
724.115	1187.375
724.243	1177.437
724.371	1171.100
724.499	1169.850
724.627	1165.963
724.755	1152.287
724.883	1151.800
725.012	1135.650
725.140	1121.475
725.268	1124.888
725.396	1111.400
725.524	1099.100
725.652	1103.750
725.780	1087.812
725.908	1079.263
726.037	1077.975
726.165	1065.575
726.293	1052.050
726.421	1051.750
726.549	1055.263
726.677	1028.312
726.805	1034.650
726.933	1033.138
727.062	1011.250
727.190	1014.388
727.318	1011.237
727.446	1004.038
727.574	1010.625
727.702	993.562
727.830	979.612
727.958	977.100
728.087	963.538
728.215	957.413
728.343	961.587
728.471	958.725
728.599	938.000
728.727	942.812
728.855	940.163
728.983	924.775
729.112	916.800
729.240	923.900
729.368	910.888
729.496	912.763
729.624	900.775
729.752	896.763
729.880	897.325
730.008	891.138
730.137	872.900
730.265	876.437
730.393	871.837
730.521	848.687
730.649	855.000
730.777	848.200
730.905	849.425
731.033	838.950
731.162	834.800
731.290	835.138
731.418	822.125
731.546	841.650
731.674	800.850
731.802	809.812
731.930	814.087
732.058	801.250
732.187	800.413
732.315	783.862
732.443	794.800
732.571	775.612
732.699	772.163
732.827	768.712
732.955	755.025
733.083	754.888
733.212	757.788
733.340	749.237
733.468	751.362
733.596	745.275
733.724	730.987
733.852	739.775
733.980	727.163
734.108	732.700
734.237	735.725
734.365	709.975
734.493	718.013
734.621	707.937
734.749	713.100
734.877	707.013
735.005	702.263
735.133	702.337
735.262	701.825
735.390	684.462
735.518	691.638
735.646	670.225
735.774	674.437
735.902	673.525
736.030	669.837
736.158	672.250
736.287	667.950
736.415	667.788
736.543	658.500
736.671	649.825
736.799	647.962
736.927	649.400
737.055	643.712
737.183	638.800
737.312	638.075
737.440	640.175
737.568	644.237
737.696	634.225
737.824	624.325
737.952	624.862
738.080	616.925
738.208	620.913
738.337	608.800
738.465	621.388
738.593	596.375
738.721	592.775
738.849	593.362
738.977	600.500
739.105	588.200
739.233	589.062
739.362	580.325
739.490	578.763
739.618	567.763
739.746	573.212
739.874	582.812
740.002	570.562
740.130	557.712
740.258	564.750
740.387	564.462
740.515	554.525
740.643	555.525
740.771	559.888
740.899	555.350
741.027	542.337
741.155	554.750
741.283	534.937
741.412	530.437
741.540	531.038
741.668	523.475
741.796	533.187
741.924	535.025
742.052	523.075
742.180	520.700
742.308	519.437
742.437	515.612
742.565	520.500
742.693	514.700
742.821	503.725
742.949	507.625
743.077	508.187
743.205	505.087
743.333	502.125
743.462	501.525
743.590	500.212
743.718	483.500
743.846	482.000
743.974	485.750
744.102	478.462
744.230	475.625
744.358	477.163
744.487	487.625
744.615	468.100
744.743	470.575
744.871	465.775
744.999	476.300
745.127	464.337
745.255	452.988
745.383	456.625
745.512	458.900
745.640	446.025
745.768	453.150
745.896	446.937
746.024	436.413
746.152	438.600
746.280	442.137
746.408	441.350
746.537	436.962
746.665	446.363
746.793	430.863
746.921	428.225
747.049	429.538
747.177	432.262
747.305	421.875
747.433	423.475
747.562	417.925
747.690	408.337
747.818	412.250
747.946	414.900
748.074	422.288
748.202	408.038
748.330	408.113
748.458	407.450
748.587	396.800
748.715	399.613
748.843	391.400
748.971	391.925
749.099	387.525
749.227	385.175
749.355	382.812
749.483	390.350
749.612	380.325
749.740	373.950
749.868	375.863
749.996	374.075
750.124	385.387
750.252	377.312
750.380	376.925
750.508	373.975
750.637	362.962
750.765	371.462
750.893	364.600
751.021	368.000
751.149	363.262
751.277	367.850
751.405	365.625
751.533	374.250
751.662	357.325
751.790	376.050
751.918	363.837
752.046	353.587
752.174	340.887
752.302	350.062
752.430	356.962
752.558	345.312
752.687	343.050
752.815	350.825
752.943	340.625
753.071	335.363
753.199	333.475
753.327	343.413
753.455	334.613
753.583	326.288
753.712	330.300
753.840	325.437
753.968	327.288
754.096	321.762
754.224	320.363
754.352	316.488
754.480	318.312
754.608	314.562
754.737	316.425
754.865	313.025
754.993	314.025
755.121	304.988
755.249	312.150
755.377	314.225
755.505	305.900
755.633	319.850
755.762	304.363
755.890	316.525
756.018	307.738
756.146	301.637
756.274	300.700
756.402	290.262
756.530	302.575
756.658	306.812
756.787	293.863
756.915	285.925
757.043	295.262
757.171	290.988
757.299	288.275
757.427	288.300
757.555	290.425
757.683	291.738
757.812	286.800
757.940	286.687
758.068	280.812
758.196	274.637
758.324	279.850
758.452	276.312
758.580	275.575
758.708	279.812
758.837	272.475
758.965	286.400
759.093	266.525
759.221	270.012
759.349	269.300
759.477	268.462
759.605	268.075
759.733	267.200
759.862	270.750
759.990	262.775
760.118	264.413
760.246	260.462
760.374	262.550
760.502	262.012
760.630	261.300
760.758	248.512
760.887	247.463
761.015	250.250
761.143	255.200
761.271	249.075
761.399	250.525
761.527	248.125
761.655	249.488
761.783	250.425
761.912	246.613
762.040	248.700
762.168	242.162
762.296	245.037
762.424	238.713
762.552	240.437
762.680	244.450
762.808	236.950
762.937	246.387
763.065	238.213
763.193	240.738
763.321	230.912
763.449	228.650
763.577	234.262
763.705	234.525
763.833	255.950
763.962	230.475
764.090	230.150
764.218	227.400
764.346	230.363
764.474	219.550
764.602	223.925
764.730	225.550
764.858	219.963
764.987	224.475
765.115	226.475
765.243	231.000
765.371	220.600
765.499	213.025
765.627	216.325
765.755	213.050
765.883	214.000
766.012	216.062
766.140	215.412
766.268	211.575
766.396	213.338
766.524	210.175
766.652	209.162
766.780	204.125
766.908	211.975
767.037	211.137
767.165	207.950
767.293	215.525
767.421	206.950
767.549	202.675
767.677	209.662
767.805	200.738
767.933	207.175
768.062	204.725
768.190	204.363
768.318	202.475
768.446	211.113
768.574	207.262
768.702	205.000
768.830	200.375
768.958	197.250
769.087	206.088
769.215	201.213
769.343	197.287
769.471	200.363
769.599	199.937
769.727	193.100
769.855	197.613
769.983	195.825
770.112	191.875
770.240	198.963
770.368	190.800
770.496	187.950
770.624	193.512
770.752	191.687
770.880	204.762
771.008	188.187
771.137	191.412
771.265	193.000
771.393	187.062
771.521	191.137
771.649	187.213
771.777	187.400
771.905	187.512
772.033	188.400
772.162	189.100
772.290	187.475
772.418	193.912
772.546	185.137
772.674	183.838
772.802	187.213
772.930	189.350
773.058	179.463
773.187	188.187
773.315	181.900
773.443	182.825
773.571	181.588
773.699	177.113
773.827	176.450
773.955	185.350
774.083	197.600
774.212	175.963
774.340	179.400
774.468	180.200
774.596	178.537
774.724	183.900
774.852	168.912
774.980	178.950
775.108	173.537
775.237	173.350
775.365	174.250
775.493	173.750
775.621	176.750
775.749	177.925
775.877	178.825
776.005	172.575
776.133	179.350
776.262	170.450
776.390	171.787
776.518	181.062
776.646	170.225
776.774	165.825
776.902	172.662
777.030	169.687
777.158	174.400
777.287	172.175
777.415	170.887
777.543	166.863
777.671	166.512
777.799	167.275
777.927	169.637
778.055	175.225
778.183	168.287
778.312	161.488
778.440	164.713
778.568	169.875
778.696	163.725
778.824	169.588
778.952	168.762
779.080	163.662
779.208	170.613
779.337	164.850
779.465	163.125
779.593	165.175
779.721	167.025
779.849	165.537
779.977	162.925
780.105	157.687
780.233	164.400
780.362	171.887
780.490	163.325
780.618	160.025
780.746	161.863
780.874	159.875
781.002	161.162
781.130	157.662
781.258	156.863
781.387	165.525
781.515	161.050
781.643	157.637
781.771	165.225
781.899	161.475
782.027	156.412
782.155	158.863
782.283	157.437
782.412	156.412
782.540	164.550
782.668	158.588
782.796	152.450
782.924	154.738
783.052	153.588
783.180	156.137
783.308	152.725
783.437	154.387
783.565	158.988
783.693	155.625
783.821	154.787
783.949	153.675
784.077	155.887
784.205	158.738
784.333	165.137
784.462	148.950
784.590	155.475
784.718	154.150
784.846	150.488
784.974	157.875
785.102	163.250
785.230	157.488
785.358	162.875
785.487	150.150
785.615	152.588
785.743	147.450
785.871	148.150
785.999	152.625
786.127	143.488
786.255	159.100
786.383	156.450
786.512	149.613
786.640	145.275
786.768	154.037
786.896	146.925
787.024	150.088
787.152	148.325
787.280	143.162
787.408	147.137
787.537	145.738
787.665	148.125
787.793	146.025
787.921	147.762
788.049	145.037
788.177	142.400
788.305	143.762
788.433	149.613
788.562	142.225
788.690	145.425
788.818	138.375
788.946	143.387
789.074	141.287
789.202	145.050
789.330	141.812
789.458	144.000
789.587	140.300
789.715	144.450
789.843	142.550
789.971	141.037
790.099	140.687
790.227	143.000
790.355	138.812
790.483	145.100
790.612	141.787
790.740	142.437
790.868	151.863
790.996	140.613
791.124	142.200
791.252	139.463
791.380	142.875
791.508	137.800
791.637	151.725
791.765	136.625
791.893	137.537
792.021	146.537
792.149	138.912
792.277	138.238
792.405	139.550
792.533	144.787
792.662	133.137
792.790	138.113
792.918	143.650
793.046	136.100
793.174	137.100
793.302	138.200
793.430	138.250
793.558	146.950
793.687	136.575
793.815	138.775
793.943	138.838
794.071	138.925
794.199	131.762
794.327	136.975
794.455	153.588
794.583	149.613
794.712	142.887
794.840	135.700
794.968	135.475
795.096	141.713
795.224	134.900
795.352	132.275
795.480	137.713
795.608	132.800
795.737	140.537
795.865	136.050
795.993	128.338
796.121	131.787
796.249	136.412
796.377	130.900
796.505	138.175
796.633	135.225
796.762	128.975
796.890	140.687
797.018	135.825
797.146	129.600
797.274	128.800
797.402	132.150
797.530	131.412
797.658	130.512
797.787	136.588
797.915	132.412
798.043	137.713
798.171	137.400
798.299	130.525
798.427	131.262
798.555	128.662
798.683	127.737
798.812	130.325
798.940	132.463
799.068	132.675
799.196	135.300
799.324	125.550
799.452	135.738
799.580	128.787
799.708	137.300
799.837	127.138
799.965	126.162
800.093	129.325
800.221	128.050
800.349	131.675
800.477	129.562
800.605	129.988
800.733	132.113
800.862	129.325
800.990	142.575
801.118	133.175
801.246	123.562
801.374	126.950
801.502	131.262
801.630	123.225
801.758	126.600
801.887	130.250
802.015	121.400
802.143	124.425
802.271	127.550
802.399	126.275
802.527	126.838
802.655	129.125
802.783	132.550
802.912	130.863
803.040	129.725
803.168	123.800
803.296	124.638
803.424	128.312
803.552	125.687
803.680	123.963
803.808	125.237
803.937	125.750
804.065	123.487
804.193	122.513
804.321	137.725
804.449	123.937
804.577	124.375
804.705	124.600
804.833	124.612
804.962	128.213
805.090	122.650
805.218	130.187
805.346	121.300
805.474	123.513
805.602	139.863
805.730	121.675
805.858	120.325
805.987	129.088
806.115	128.863
806.243	126.937
806.371	121.625
806.499	123.550
806.627	113.400
806.755	121.987
806.883	120.662
807.012	121.112
807.140	122.362
807.268	119.275
807.396	124.412
807.524	118.612
807.652	121.138
807.780	133.287
807.908	121.412
808.037	129.062
808.165	122.800
808.293	119.925
808.421	129.175
808.549	121.475
808.677	115.425
808.805	124.475
808.933	120.263
809.062	122.575
809.190	139.350
809.318	122.112
809.446	117.725
809.574	118.763
809.702	120.200
809.830	116.588
809.958	122.625
810.087	117.213
810.215	126.138
810.343	132.787
810.471	127.862
810.599	119.125
810.727	121.037
810.855	115.487
810.983	119.775
811.112	120.213
811.240	113.725
811.368	122.513
811.496	128.500
811.624	122.825
811.752	117.638
811.880	116.875
812.008	114.963
812.137	118.213
812.265	117.725
812.393	120.050
812.521	120.125
812.649	118.425
812.777	117.812
812.905	120.537
813.033	115.037
813.162	116.250
813.290	115.838
813.418	124.825
813.546	118.475
813.674	117.987
813.802	120.588
813.930	118.150
814.058	112.138
814.187	112.463
814.315	118.425
814.443	114.662
814.571	111.362
814.699	122.350
814.827	115.437
814.955	119.925
815.083	118.600
815.212	117.062
815.340	115.650
815.468	115.062
815.596	116.487
815.724	113.312
815.852	114.513
815.980	114.875
816.108	117.013
816.237	115.112
816.365	114.700
816.493	113.450
816.621	114.425
816.749	114.513
816.877	114.062
817.005	118.013
817.133	112.400
817.262	113.237
817.390	121.312
817.518	112.037
817.646	116.650
817.774	111.525
817.902	120.225
818.030	111.588
818.158	118.350
818.287	114.375
818.415	110.700
818.543	112.513
818.671	115.100
818.799	113.937
818.927	115.250
819.055	112.562
819.183	109.412
819.312	110.975
819.440	116.162
819.568	113.463
819.696	121.225
819.824	117.675
819.952	112.737
820.080	110.963
820.208	113.050
820.337	113.750
820.465	111.263
820.593	111.388
820.721	115.187
820.849	114.150
820.977	109.225
821.105	111.287
821.233	109.112
821.362	113.050
821.490	110.987
821.618	113.600
821.746	109.112
821.874	110.125
822.002	114.800
822.130	115.000
822.258	108.787
822.387	114.825
822.515	112.812
822.643	109.062
822.771	109.700
822.899	112.287
823.027	109.400
823.155	107.925
823.283	111.287
823.412	113.925
823.540	112.112
823.668	129.625
823.796	108.763
823.924	112.750
824.052	118.312
824.180	111.588
824.308	116.713
824.437	110.562
824.565	108.213
824.693	113.250
824.821	111.537
824.949	113.875
825.077	113.700
825.205	116.275
825.333	113.950
825.462	113.900
825.590	106.513
825.718	114.963
825.846	108.487
825.974	114.338
826.102	112.312
826.230	112.388
826.358	111.325
826.487	110.138
826.615	108.450
826.743	108.200
826.871	112.475
826.999	112.338
827.127	113.275
827.255	110.075
827.383	107.062
827.512	114.362
827.640	109.537
827.768	106.513
827.896	108.112
828.024	107.200
828.152	108.037
828.280	109.225
828.408	109.300
828.537	111.388
828.665	112.000
828.793	108.425
828.921	107.800
829.049	111.150
829.177	107.062
829.305	108.588
829.433	108.025
829.562	107.138
829.690	108.575
829.818	110.612
829.946	108.325
830.074	106.725
830.202	110.513
830.330	111.812
830.458	119.100
830.587	109.112
830.715	107.763
830.843	108.650
830.971	108.437
831.099	107.075
831.227	108.287
831.355	106.575
831.483	107.588
831.612	110.487
831.740	107.825
831.868	110.500
831.996	108.763
832.124	110.375
832.252	104.025
832.380	104.987
832.508	109.475
832.637	111.825
832.765	109.612
832.893	112.125
833.021	110.513
833.149	107.100
833.277	106.562
833.405	108.050
833.533	106.175
833.662	107.125
833.790	111.325
833.918	111.437
834.046	110.062
834.174	110.612
834.302	109.862
834.430	108.475
834.558	105.987
834.687	106.513
834.815	108.125
834.943	106.050
835.071	106.362
835.199	107.588
835.327	108.312
835.455	106.075
835.583	107.800
835.712	108.675
835.840	112.263
835.968	107.463
836.096	108.987
836.224	111.800
836.352	108.487
836.480	112.925
836.608	115.237
836.737	109.162
836.865	106.550
836.993	107.750
837.121	108.125
837.249	107.838
837.377	112.263
837.505	110.437
837.633	109.713
837.762	105.763
837.890	115.537
838.018	113.037
838.146	107.338
838.274	107.175
838.402	113.287
838.530	104.500
838.658	104.200
838.787	107.700
838.915	110.312
839.043	110.638
839.171	113.800
839.299	110.125
839.427	110.388
839.555	114.888
839.683	110.312
839.812	108.062
839.940	107.138
840.068	109.187
840.196	106.650
840.324	114.175
840.452	111.600
840.580	112.662
840.708	107.963
840.837	109.175
840.965	110.162
841.093	110.350
841.221	108.838
841.349	110.912
841.477	109.025
841.605	108.588
841.733	107.362
841.862	111.425
841.990	110.150
842.118	104.237
842.246	105.100
842.374	103.937
842.502	105.862
842.630	109.037
842.758	110.138
842.887	108.450
843.015	107.625
843.143	116.200
843.271	110.787
843.399	110.037
843.527	107.375
843.655	106.963
843.783	105.825
843.912	107.388
844.040	111.750
844.168	115.013
844.296	111.425
844.424	109.787
844.552	109.400
844.680	113.062
844.808	110.912
844.937	108.050
845.065	105.125
845.193	107.388
845.321	106.312
845.449	106.700
845.577	104.713
845.705	107.050
845.833	107.412
845.962	105.475
846.090	105.787
846.218	105.763
846.346	106.588
846.474	108.550
846.602	107.237
846.730	105.775
846.858	106.763
846.987	106.737
847.115	106.937
847.243	108.638
847.371	111.025
847.499	106.650
847.627	104.575
847.755	104.513
847.883	108.312
848.012	109.525
848.140	105.825
848.268	107.600
848.396	107.175
848.524	105.588
848.652	108.812
848.780	107.150
848.908	107.687
849.037	108.963
849.165	106.162
849.293	107.525
849.421	112.888
849.549	107.362
849.677	107.025
849.805	109.963
849.933	108.338
850.062	108.463
850.190	105.787
850.318	108.175
850.446	107.713
850.574	103.937
850.702	108.500
850.830	108.600
850.958	106.000
851.087	106.275
851.215	113.937
851.343	109.338
851.471	105.713
851.599	106.013
851.727	111.287
851.855	105.325
851.983	106.088
852.112	105.388
852.240	111.425
852.368	109.350
852.496	106.588
852.624	106.575
852.752	105.987
852.880	104.600
853.008	111.025
853.137	111.237
853.265	107.487
853.393	110.050
853.521	111.687
853.649	109.912
853.777	107.187
853.905	107.963
854.033	109.138
854.162	106.787
854.290	106.588
854.418	106.275
854.546	105.963
854.674	106.162
854.802	107.162
854.930	104.650
855.058	104.338
855.187	103.800
855.315	104.612
855.443	103.812
855.571	103.475
855.699	107.650
855.827	109.325
855.955	104.412
856.083	106.263
856.212	104.575
856.340	106.125
856.468	113.075
856.596	107.487
856.724	105.975
856.852	106.900
856.980	105.737
857.108	104.213
857.237	108.987
857.365	107.162
857.493	107.237
857.621	105.075
857.749	107.588
857.877	109.300
858.005	109.775
858.133	108.088
858.262	106.588
858.390	104.612
858.518	104.300
858.646	107.338
858.774	105.625
858.902	106.425
859.030	107.213
859.158	105.525
859.287	109.312
859.415	110.325
859.543	105.412
859.671	107.037
859.799	110.013
859.927	106.875
860.055	107.437
860.183	105.850
860.312	106.987
860.440	107.100
860.568	108.425
860.696	107.812
860.824	118.225
860.952	105.825
861.080	105.075
861.208	105.838
861.337	107.275
861.465	107.062
861.593	112.537
861.721	106.875
861.849	108.025
861.977	106.037
862.105	106.575
862.233	104.925
862.362	105.725
862.490	104.437
862.618	104.112
862.746	106.725
862.874	105.500
863.002	106.575
863.130	110.225
863.258	108.013
863.387	106.825
863.515	105.725
863.643	107.338
863.771	107.037
863.899	110.062
864.027	106.088
864.155	107.625
864.283	104.987
864.412	106.400
864.540	105.487
864.668	103.513
864.796	105.300
864.924	104.800
865.052	106.375
865.180	107.000
865.308	103.562
865.437	107.425
865.565	106.687
865.693	112.287
865.821	107.912
865.949	107.000
866.077	105.812
866.205	106.025
866.333	105.475
866.462	106.325
866.590	106.150
866.718	109.375
866.846	107.487
866.974	105.187
867.102	107.013
867.230	106.800
867.358	108.138
867.487	107.713
867.615	105.350
867.743	109.763
867.871	111.838
867.999	108.162
868.127	103.737
868.255	114.912
868.383	110.425
868.512	108.737
868.640	106.062
868.768	106.100
868.896	105.713
869.024	104.612
869.152	105.425
869.280	104.888
869.408	107.725
869.537	105.138
869.665	107.600
869.793	104.725
869.921	110.388
870.049	107.000
870.177	107.100
870.305	118.037
870.433	110.425
870.562	107.075
870.690	104.638
870.818	105.525
870.946	105.187
871.074	105.237
871.202	106.850
871.330	105.300
871.458	103.687
871.587	105.625
871.715	105.112
871.843	108.200
871.971	106.287
872.099	105.213
872.227	103.388
872.355	106.150
872.483	111.437
872.612	109.150
872.740	109.325
872.868	105.375
872.996	108.875
873.124	106.550
873.252	109.100
873.380	106.162
873.508	108.562
873.637	106.362
873.765	109.575
873.893	109.812
874.021	110.875
874.149	108.675
874.277	106.225
874.405	113.638
874.533	107.400
874.662	328.575
874.790	113.912
874.918	113.588
875.046	106.800
875.174	108.287
875.302	106.112
875.430	102.875
875.558	105.138
875.687	107.300
875.815	107.312
875.943	109.075
876.071	110.825
876.199	111.025
876.327	113.763
876.455	107.350
876.583	106.350
876.712	107.062
876.840	107.338
876.968	105.350
877.096	106.537
877.224	106.463
877.352	103.463
877.480	105.150
877.608	105.375
877.737	108.937
877.865	105.787
877.993	108.750
878.121	106.638
878.249	104.875
878.377	106.175
878.505	107.737
878.633	106.537
878.762	104.812
878.890	105.750
879.018	106.075
879.146	107.875
879.274	106.588
879.402	106.687
879.530	105.412
879.658	109.000
879.787	107.162
879.915	105.388
880.043	104.875
880.171	105.450
880.299	102.600
880.427	106.062
880.555	109.263
880.683	108.750
880.812	106.950
880.940	105.275
881.068	106.162
881.196	108.450
881.324	108.112
881.452	107.450
881.580	105.800
881.708	106.575
881.837	104.487
881.965	106.950
882.093	104.838
882.221	103.525
882.349	109.963
882.477	110.375
882.605	110.662
882.733	105.325
882.862	105.562
882.990	105.287
883.118	108.537
883.246	114.275
883.374	109.725
883.502	103.588
883.630	104.662
883.758	106.175
883.887	103.562
884.015	104.963
884.143	106.987
884.271	107.037
884.399	107.175
884.527	105.687
884.655	105.050
884.783	105.000
884.912	105.375
885.040	105.062
885.168	104.612
885.296	104.000
885.424	104.537
885.552	110.800
885.680	107.588
885.808	106.450
885.937	109.775
886.065	108.937
886.193	106.112
886.321	105.838
886.449	106.588
886.577	106.737
886.705	104.112
886.833	104.987
886.962	104.450
887.090	107.588
887.218	106.338
887.346	106.850
887.474	111.950
887.602	109.525
887.730	104.763
887.858	107.600
887.987	108.862
888.115	113.662
888.243	109.600
888.371	110.537
888.499	108.912
888.627	108.513
888.755	110.525
888.883	109.400
889.012	105.912
889.140	106.175
889.268	110.475
889.396	119.300
889.524	105.213
889.652	104.013
889.780	106.062
889.908	107.650
890.037	107.162
890.165	106.975
890.293	107.713
890.421	108.088
890.549	107.013
890.677	109.487
890.805	107.450
890.933	106.187
891.062	104.850
891.190	109.862
891.318	110.687
891.446	110.412
891.574	107.250
891.702	104.937
891.830	105.300
891.958	108.162
892.087	112.812
892.215	107.213
892.343	109.300
892.471	107.650
892.599	108.362
892.727	112.225
892.855	107.463
892.983	108.900
893.112	107.912
893.240	108.362
893.368	109.162
893.496	109.825
893.624	106.525
893.752	110.275
893.880	107.150
894.008	103.763
894.137	107.838
894.265	111.200
894.393	110.550
894.521	108.588
894.649	107.537
894.777	104.175
894.905	106.675
895.033	115.275
895.162	109.250
895.290	107.675
895.418	109.763
895.546	110.950
895.674	111.713
895.802	106.825
895.930	107.275
896.058	105.937
896.187	105.013
896.315	107.687
896.443	113.325
896.571	109.362
896.699	108.463
896.827	106.062
896.955	108.925
897.083	107.888
897.212	108.725
897.340	105.013
897.468	104.713
897.596	105.375
897.724	106.612
897.852	113.025
897.980	108.825
898.108	107.037
898.237	105.187
898.365	106.625
898.493	109.487
898.621	110.275
898.749	103.138
898.877	106.037
899.005	108.850
899.133	105.525
899.262	104.388
899.390	107.037
899.518	107.400
899.646	108.437
899.774	113.725
899.902	112.588
900.030	106.088
900.158	107.338
900.287	111.075
900.415	104.162
900.543	107.050
900.671	111.800
900.799	107.000
900.927	105.750
901.055	106.600
901.183	106.838
901.312	106.338
901.440	110.713
901.568	109.937
901.696	107.400
901.824	108.787
901.952	114.000
902.080	110.875
902.208	109.112
902.337	108.287
902.465	107.875
902.593	106.700
902.721	107.875
902.849	108.062
902.977	108.325
903.105	115.437
903.233	113.875
903.362	108.750
903.490	108.225
903.618	107.700
903.746	115.650
903.874	109.550
904.002	111.150
904.130	111.763
904.258	109.300
904.387	106.662
904.515	107.062
904.643	106.750
904.771	106.525
904.899	112.862
905.027	108.487
905.155	106.225
905.283	109.325
905.412	111.100
905.540	110.862
905.668	107.875
905.796	106.713
905.924	108.525
906.052	107.500
906.180	108.875
906.308	114.213
906.437	110.562
906.565	114.450
906.693	109.263
906.821	109.500
906.949	108.650
907.077	109.075
907.205	112.162
907.333	111.825
907.462	109.263
907.590	111.075
907.718	112.475
907.846	110.513
907.974	112.925
908.102	109.525
908.230	110.713
908.358	111.713
908.487	109.787
908.615	108.963
908.743	107.987
908.871	110.187
908.999	109.362
909.127	108.713
909.255	107.412
909.383	109.487
909.512	112.750
909.640	110.075
909.768	111.125
909.896	121.850
910.024	113.537
910.152	110.763
910.280	112.638
910.408	111.713
910.537	111.650
910.665	113.725
910.793	112.987
910.921	116.338
911.049	114.687
911.177	111.275
911.305	115.463
911.433	111.888
911.562	109.050
911.690	111.200
911.818	119.475
911.946	123.187
912.074	116.662
912.202	111.600
912.330	110.513
912.458	111.737
912.587	116.513
912.715	113.125
912.843	115.713
912.971	116.950
913.099	114.925
913.227	115.237
913.355	113.625
913.483	114.725
913.612	114.562
913.740	131.325
913.868	115.112
