sample9_PP_at_750.00nm_cut_at_1008.00Y_01.dat
15.05.2023
11:06:39
cut middle at Y: 1008.00
top cursor: 1048 down cursor: 968 mean of: 80 lines , 2560 datapoints
wavelength(nm)	intensity[arb. units]
585.996	2705.675
586.124	2610.050
586.252	2605.762
586.380	2634.450
586.508	2670.400
586.637	2643.687
586.765	2653.662
586.893	2665.675
587.021	2694.900
587.149	2759.550
587.277	2718.037
587.405	2793.050
587.533	2729.062
587.662	2923.687
587.790	2869.550
587.918	2748.687
588.046	2804.512
588.174	2783.412
588.302	2855.588
588.430	2855.200
588.558	2831.863
588.687	2856.675
588.815	2846.287
588.943	2849.925
589.071	2872.125
589.199	2914.387
589.327	2903.613
589.455	2870.262
589.583	3016.650
589.712	2960.812
589.840	2935.463
589.968	2933.225
590.096	2928.075
590.224	3007.750
590.352	2954.537
590.480	3005.175
590.608	3003.287
590.737	3117.287
590.865	3118.137
590.993	3001.800
591.121	3035.650
591.249	3074.250
591.377	3078.012
591.505	3078.363
591.633	3168.750
591.762	3130.012
591.890	3319.625
592.018	3118.512
592.146	3127.387
592.274	3176.637
592.402	3161.000
592.530	3166.450
592.658	3374.125
592.787	3244.475
592.915	3378.437
593.043	3242.600
593.171	3257.200
593.299	3291.387
593.427	3289.787
593.555	3287.687
593.683	3304.025
593.812	3327.988
593.940	3345.750
594.068	3361.800
594.196	3419.400
594.324	3402.650
594.452	3398.562
594.580	3423.937
594.708	3481.450
594.837	3464.262
594.965	3572.975
595.093	3557.412
595.221	3565.075
595.349	3682.550
595.477	3577.838
595.605	3589.713
595.733	3602.562
595.862	3799.412
595.990	3661.062
596.118	3685.200
596.246	3838.900
596.374	3738.912
596.502	3729.550
596.630	3767.000
596.758	3741.287
596.887	3795.625
597.015	3767.425
597.143	3815.650
597.271	3810.525
597.399	3819.075
597.527	3845.600
597.655	3877.588
597.783	3839.725
597.912	3856.463
598.040	3909.012
598.168	3982.375
598.296	3892.238
598.424	3942.900
598.552	3950.925
598.680	3922.937
598.808	4078.787
598.937	3930.037
599.065	3960.875
599.193	4097.038
599.321	4089.350
599.449	3991.200
599.577	3990.387
599.705	4078.412
599.833	3993.213
599.962	4017.350
600.090	4073.988
600.218	4106.413
600.346	4149.200
600.474	4057.550
600.602	4041.900
600.730	4104.738
600.858	4089.100
600.987	4233.975
601.115	4124.288
601.243	4127.125
601.371	4121.650
601.499	4156.600
601.627	4199.488
601.755	4194.288
601.883	4234.762
602.012	4249.238
602.140	4214.900
602.268	4344.913
602.396	4308.300
602.524	4322.800
602.652	4304.562
602.780	4331.825
602.908	4338.238
603.037	4428.400
603.165	4416.250
603.293	4448.962
603.421	4451.550
603.549	4473.363
603.677	4519.613
603.805	4526.137
603.933	4528.925
604.062	4632.875
604.190	4581.312
604.318	4590.038
604.446	4617.875
604.574	4653.475
604.702	4678.413
604.830	4676.025
604.958	4702.625
605.087	4725.950
605.215	4743.087
605.343	4750.525
605.471	4814.675
605.599	4805.900
605.727	4791.725
605.855	4842.788
605.983	4829.100
606.112	4837.250
606.240	4880.125
606.368	4906.762
606.496	5070.937
606.624	4905.187
606.752	4994.925
606.880	5101.075
607.008	5175.800
607.137	5120.113
607.265	4979.300
607.393	5010.525
607.521	5123.575
607.649	5037.462
607.777	5054.238
607.905	5087.788
608.033	5095.225
608.162	5054.663
608.290	5121.075
608.418	5077.300
608.546	5123.038
608.674	5126.437
608.802	5062.950
608.930	5069.087
609.058	5075.163
609.187	5115.800
609.315	5147.350
609.443	5094.800
609.571	5191.413
609.699	5104.200
609.827	5121.425
609.955	5156.475
610.083	5114.087
610.212	5108.762
610.340	5146.738
610.468	5276.163
610.596	5179.650
610.724	5207.988
610.852	5166.712
610.980	5152.163
611.108	5264.363
611.237	5141.962
611.365	5167.775
611.493	5152.125
611.621	5196.900
611.749	5190.238
611.877	5219.913
612.005	5201.400
612.133	5248.575
612.262	5234.663
612.390	5234.663
612.518	5274.462
612.646	5380.413
612.774	5262.525
612.902	5264.025
613.030	5272.738
613.158	5380.837
613.287	5332.887
613.415	5294.637
613.543	5295.800
613.671	5313.750
613.799	5373.325
613.927	5367.262
614.055	5342.562
614.183	5472.575
614.312	5337.775
614.440	5517.075
614.568	5414.800
614.696	5396.950
614.824	5569.600
614.952	5462.687
615.080	5394.250
615.208	5495.725
615.337	5455.025
615.465	5468.812
615.593	5490.600
615.721	5537.837
615.849	5544.363
615.977	5560.238
616.105	5600.762
616.233	5550.875
616.362	5607.925
616.490	5547.775
616.618	5530.087
616.746	5613.812
616.874	5662.950
617.002	5605.150
617.130	5653.488
617.258	5764.450
617.387	5625.625
617.515	5598.087
617.643	5622.775
617.771	5645.400
617.899	5678.350
618.027	5593.913
618.155	5741.375
618.283	5619.837
618.412	5659.738
618.540	5708.175
618.668	5681.663
618.796	5622.825
618.924	5757.625
619.052	5617.850
619.180	5594.075
619.308	5658.000
619.437	5650.375
619.565	5615.812
619.693	5578.613
619.821	5594.150
619.949	5564.250
620.077	5644.462
620.205	5636.025
620.333	5623.250
620.462	5641.137
620.590	5681.775
620.718	5560.800
620.846	5683.462
620.974	5661.275
621.102	5601.150
621.230	5539.488
621.358	5685.863
621.487	5523.375
621.615	5553.650
621.743	5572.087
621.871	5548.350
621.999	5624.325
622.127	5553.437
622.255	5547.637
622.383	5541.700
622.512	5521.100
622.640	5658.562
622.768	5486.825
622.896	5517.512
623.024	5493.337
623.152	5577.600
623.280	5559.275
623.408	5446.450
623.537	5480.363
623.665	5439.413
623.793	5513.238
623.921	5475.300
624.049	5449.288
624.177	5440.925
624.305	5489.637
624.433	5470.488
624.562	5450.875
624.690	5450.738
624.818	5490.187
624.946	5622.275
625.074	5468.937
625.202	5400.300
625.330	5363.000
625.458	5449.450
625.587	5376.462
625.715	5440.450
625.843	5504.812
625.971	5378.562
626.099	5354.900
626.227	5353.525
626.355	5303.363
626.483	5415.512
626.612	5297.075
626.740	5281.288
626.868	5358.437
626.996	5256.625
627.124	5267.262
627.252	5245.025
627.380	5264.750
627.508	5267.687
627.637	5231.375
627.765	5257.775
627.893	5223.175
628.021	5212.288
628.149	5237.450
628.277	5227.550
628.405	5264.512
628.533	5169.625
628.662	5203.950
628.790	5154.413
628.918	5161.075
629.046	5130.725
629.174	5124.900
629.302	5239.200
629.430	5107.462
629.558	5130.000
629.687	5113.663
629.815	5093.087
629.943	5142.825
630.071	5136.187
630.199	5109.062
630.327	5104.488
630.455	5086.538
630.583	5113.650
630.712	5073.650
630.840	5063.150
630.968	5094.375
631.096	5033.137
631.224	5025.300
631.352	5020.050
631.480	5025.512
631.608	4990.413
631.737	5088.725
631.865	5162.775
631.993	4992.300
632.121	5053.212
632.249	5050.375
632.377	5000.675
632.505	5009.762
632.633	4908.337
632.762	4998.175
632.890	5054.288
633.018	4912.775
633.146	4942.600
633.274	4953.062
633.402	4913.538
633.530	4878.325
633.658	5025.775
633.787	4832.800
633.915	4917.312
634.043	4829.613
634.171	4821.075
634.299	4814.850
634.427	4877.400
634.555	4795.275
634.683	4748.788
634.812	4729.650
634.940	4716.225
635.068	4687.812
635.196	4691.675
635.324	4667.988
635.452	4730.062
635.580	4619.988
635.708	4619.725
635.837	4630.262
635.965	4592.212
636.093	4534.488
636.221	4530.637
636.349	4585.975
636.477	4453.762
636.605	4616.913
636.733	4391.750
636.862	4390.738
636.990	4424.187
637.118	4463.000
637.246	4399.387
637.374	4357.925
637.502	4331.512
637.630	4275.288
637.758	4305.750
637.887	4248.988
638.015	4228.350
638.143	4209.488
638.271	4201.988
638.399	4173.312
638.527	4169.937
638.655	4130.363
638.783	4250.850
638.912	4126.913
639.040	4121.312
639.168	4121.562
639.296	4052.825
639.424	4156.637
639.552	4029.887
639.680	4014.162
639.808	4056.088
639.937	3986.812
640.065	3922.650
640.193	4008.613
640.321	3917.412
640.449	3968.875
640.577	3999.725
640.705	3924.775
640.833	3990.687
640.962	3855.775
641.090	3846.512
641.218	3804.050
641.346	3797.613
641.474	3842.287
641.602	3804.912
641.730	3801.675
641.858	3772.488
641.987	3793.975
642.115	3745.450
642.243	3791.762
642.371	3754.175
642.499	3721.012
642.627	3739.925
642.755	3761.338
642.883	3752.400
643.012	3698.387
643.140	3642.012
643.268	3651.325
643.396	3657.162
643.524	3786.437
643.652	3615.875
643.780	3585.200
643.908	3589.537
644.037	3688.325
644.165	3552.463
644.293	3568.787
644.421	3512.213
644.549	3595.687
644.677	3504.762
644.805	3547.250
644.933	3458.588
645.062	3493.725
645.190	3485.687
645.318	3546.062
645.446	3457.887
645.574	3460.613
645.702	3422.912
645.830	3582.537
645.958	3383.225
646.087	3562.687
646.215	3360.025
646.343	3544.275
646.471	3408.500
646.599	3399.812
646.727	3324.363
646.855	3334.887
646.983	3350.463
647.112	3264.550
647.240	3447.725
647.368	3275.750
647.496	3323.950
647.624	3226.050
647.752	3203.738
647.880	3209.300
648.008	3172.488
648.137	3145.875
648.265	3156.700
648.393	3134.400
648.521	3151.375
648.649	3129.775
648.777	3145.113
648.905	3074.762
649.033	3071.275
649.162	3080.350
649.290	3048.675
649.418	3060.075
649.546	3067.312
649.674	3073.025
649.802	3013.613
649.930	3147.437
650.058	2919.637
650.187	2979.863
650.315	2913.550
650.443	2980.425
650.571	2908.025
650.699	2873.025
650.827	2839.325
650.955	2846.225
651.083	2852.675
651.212	2866.250
651.340	2900.988
651.468	2821.338
651.596	2773.775
651.724	2746.762
651.852	2772.062
651.980	2710.625
652.108	2817.287
652.237	2741.825
652.365	2791.613
652.493	2675.225
652.621	2668.600
652.749	2728.425
652.877	2642.700
653.005	2677.338
653.133	2633.400
653.262	2651.825
653.390	2596.525
653.518	2662.187
653.646	2595.675
653.774	2706.387
653.902	2610.937
654.030	2542.488
654.158	2544.312
654.287	2558.287
654.415	2546.662
654.543	2527.975
654.671	2548.838
654.799	2495.387
654.927	2500.400
655.055	2484.613
655.183	2475.887
655.312	2455.812
655.440	2463.250
655.568	2428.162
655.696	2455.000
655.824	2463.700
655.952	2427.175
656.080	2398.512
656.208	2426.637
656.337	2384.275
656.465	2392.562
656.593	2381.738
656.721	2362.875
656.849	2377.812
656.977	2341.750
657.105	2332.850
657.233	2310.287
657.362	2315.387
657.490	2304.275
657.618	2300.863
657.746	2290.562
657.874	2263.088
658.002	2268.475
658.130	2250.575
658.258	2258.275
658.387	2240.625
658.515	2225.700
658.643	2225.900
658.771	2196.125
658.899	2192.238
659.027	2207.000
659.155	2192.812
659.283	2162.937
659.412	2155.863
659.540	2166.312
659.668	2156.775
659.796	2122.350
659.924	2152.812
660.052	2118.725
660.180	2114.300
660.308	2114.562
660.437	2074.363
660.565	2091.588
660.693	2063.800
660.821	2087.113
660.949	2066.787
661.077	2046.625
661.205	2049.475
661.333	2030.437
661.462	2052.325
661.590	2050.613
661.718	2000.850
661.846	1994.187
661.974	1996.588
662.102	1994.037
662.230	1976.000
662.358	1966.075
662.487	1962.287
662.615	1928.437
662.743	1953.325
662.871	1948.475
662.999	1921.475
663.127	1916.213
663.255	1915.187
663.383	1919.862
663.512	1916.275
663.640	1896.625
663.768	1886.513
663.896	1886.062
664.024	1867.388
664.152	1858.162
664.280	1855.787
664.408	1858.450
664.537	1849.475
664.665	1845.575
664.793	1810.037
664.921	1808.900
665.049	1819.600
665.177	1827.912
665.305	1799.237
665.433	1793.588
665.562	1791.150
665.690	1769.725
665.818	1774.300
665.946	1768.325
666.074	1757.612
666.202	1744.700
666.330	1746.425
666.458	1734.575
666.587	1712.662
666.715	1731.500
666.843	1725.325
666.971	1709.300
667.099	1720.150
667.227	1707.037
667.355	1696.400
667.483	1684.537
667.612	1693.675
667.740	1670.300
667.868	1689.362
667.996	1672.600
668.124	1647.687
668.252	1658.388
668.380	1633.825
668.508	1652.625
668.637	1626.675
668.765	1621.463
668.893	1617.162
669.021	1622.412
669.149	1599.588
669.277	1578.037
669.405	1599.175
669.533	1588.775
669.662	1577.525
669.790	1557.388
669.918	1564.950
670.046	1554.000
670.174	1565.425
670.302	1552.800
670.430	1539.575
670.558	1530.537
670.687	1522.475
670.815	1523.612
670.943	1507.838
671.071	1500.463
671.199	1517.713
671.327	1494.450
671.455	1491.713
671.583	1495.162
671.712	1476.812
671.840	1469.425
671.968	1471.412
672.096	1444.150
672.224	1456.225
672.352	1442.925
672.480	1433.925
672.608	1425.050
672.737	1417.200
672.865	1411.412
672.993	1401.487
673.121	1403.737
673.249	1414.487
673.377	1395.150
673.505	1397.088
673.633	1371.750
673.762	1362.900
673.890	1384.888
674.018	1371.125
674.146	1362.425
674.274	1360.800
674.402	1348.987
674.530	1350.612
674.658	1335.925
674.787	1328.737
674.915	1315.612
675.043	1325.950
675.171	1321.875
675.299	1310.475
675.427	1298.225
675.555	1301.838
675.683	1289.825
675.812	1277.800
675.940	1261.987
676.068	1283.875
676.196	1266.900
676.324	1263.787
676.452	1265.250
676.580	1249.912
676.708	1251.487
676.837	1262.950
676.965	1224.937
677.093	1234.838
677.221	1222.062
677.349	1206.862
677.477	1211.362
677.605	1203.625
677.733	1215.838
677.862	1198.875
677.990	1192.737
678.118	1181.525
678.246	1170.737
678.374	1169.425
678.502	1164.963
678.630	1146.013
678.758	1157.500
678.887	1140.013
679.015	1152.187
679.143	1135.638
679.271	1126.075
679.399	1129.600
679.527	1122.362
679.655	1114.138
679.783	1116.450
679.912	1116.763
680.040	1103.475
680.168	1106.750
680.296	1089.600
680.424	1099.525
680.552	1094.625
680.680	1092.825
680.808	1074.900
680.937	1078.612
681.065	1085.088
681.193	1062.750
681.321	1067.937
681.449	1068.550
681.577	1072.950
681.705	1051.025
681.833	1055.725
681.962	1036.138
682.090	1038.150
682.218	1043.175
682.346	1036.325
682.474	1035.513
682.602	1030.400
682.730	1020.600
682.858	1018.937
682.987	1021.413
683.115	1005.913
683.243	991.737
683.371	1003.962
683.499	989.375
683.627	1006.400
683.755	989.987
683.883	1003.163
684.012	984.187
684.140	981.625
684.268	972.712
684.396	985.050
684.524	972.862
684.652	973.800
684.780	978.413
684.908	954.125
685.037	963.725
685.165	948.025
685.293	957.050
685.421	941.663
685.549	935.513
685.677	953.200
685.805	933.862
685.933	935.000
686.062	928.962
686.190	934.675
686.318	931.862
686.446	937.600
686.574	922.650
686.702	932.575
686.830	929.225
686.958	927.325
687.087	908.675
687.215	891.538
687.343	902.062
687.471	897.750
687.599	886.837
687.727	890.650
687.855	896.913
687.983	890.650
688.112	894.625
688.240	871.975
688.368	876.525
688.496	888.475
688.624	869.612
688.752	861.375
688.880	879.275
689.008	862.263
689.137	861.862
689.265	857.925
689.393	845.737
689.521	857.237
689.649	856.400
689.777	854.062
689.905	838.538
690.033	845.650
690.162	833.600
690.290	827.237
690.418	834.487
690.546	846.750
690.674	832.237
690.802	825.413
690.930	818.875
691.058	816.437
691.187	807.500
691.315	819.425
691.443	813.437
691.571	812.312
691.699	786.050
691.827	795.400
691.955	802.112
692.083	790.538
692.212	782.675
692.340	803.800
692.468	787.312
692.596	782.250
692.724	779.350
692.852	778.575
692.980	782.400
693.108	769.200
693.237	767.413
693.365	763.500
693.493	756.187
693.621	749.038
693.749	757.888
693.877	744.300
694.005	736.925
694.133	753.812
694.262	746.850
694.390	739.875
694.518	725.325
694.646	733.775
694.774	733.487
694.902	718.475
695.030	730.337
695.158	713.300
695.287	721.250
695.415	715.400
695.543	719.800
695.671	707.612
695.799	712.925
695.927	707.413
696.055	694.163
696.183	703.775
696.312	704.250
696.440	691.812
696.568	693.800
696.696	681.062
696.824	680.825
696.952	679.888
697.080	678.650
697.208	687.525
697.337	670.337
697.465	664.312
697.593	664.575
697.721	665.600
697.849	669.987
697.977	659.913
698.105	657.187
698.233	658.400
698.362	647.675
698.490	650.875
698.618	649.450
698.746	647.250
698.874	646.125
699.002	649.788
699.130	637.300
699.258	636.763
699.387	625.087
699.515	620.487
699.643	625.587
699.771	632.437
699.899	624.562
700.027	619.038
700.155	620.237
700.283	615.375
700.412	613.900
700.540	619.775
700.668	602.825
700.796	613.150
700.924	598.725
701.052	603.837
701.180	601.625
701.308	602.712
701.437	590.950
701.565	591.712
701.693	587.250
701.821	599.112
701.949	607.288
702.077	578.675
702.205	594.487
702.333	579.125
702.462	582.513
702.590	569.337
702.718	582.950
702.846	569.425
702.974	575.925
703.102	575.700
703.230	572.837
703.358	558.862
703.487	557.100
703.615	572.013
703.743	550.862
703.871	564.763
703.999	539.575
704.127	556.612
704.255	537.862
704.383	545.312
704.512	542.038
704.640	542.125
704.768	534.700
704.896	531.150
705.024	531.575
705.152	544.500
705.280	535.337
705.408	525.350
705.537	525.450
705.665	528.687
705.793	525.888
705.921	518.413
706.049	526.175
706.177	520.263
706.305	517.150
706.433	512.100
706.562	511.663
706.690	512.112
706.818	501.262
706.946	510.113
707.074	502.562
707.202	497.250
707.330	499.950
707.458	501.225
707.587	487.462
707.715	487.437
707.843	488.275
707.971	483.100
708.099	492.937
708.227	482.337
708.355	478.750
708.483	482.863
708.612	478.350
708.740	481.000
708.868	475.337
708.996	481.100
709.124	485.475
709.252	472.262
709.380	477.988
709.508	461.300
709.637	459.800
709.765	462.425
709.893	460.800
710.021	458.238
710.149	463.038
710.277	462.850
710.405	461.575
710.533	442.000
710.662	454.837
710.790	456.038
710.918	449.762
711.046	447.488
711.174	452.525
711.302	450.762
711.430	446.387
711.558	446.125
711.687	431.437
711.815	434.337
711.943	452.750
712.071	436.212
712.199	436.762
712.327	435.038
712.455	431.100
712.583	429.437
712.712	442.025
712.840	431.988
712.968	423.900
713.096	428.500
713.224	427.738
713.352	417.637
713.480	410.575
713.608	417.663
713.737	412.413
713.865	410.062
713.993	414.275
714.121	411.525
714.249	418.550
714.377	413.525
714.505	416.062
714.633	402.238
714.762	395.675
714.890	406.950
715.018	409.937
715.146	398.525
715.274	407.825
715.402	393.825
715.530	401.738
715.658	398.900
715.787	396.250
715.915	393.812
716.043	387.125
716.171	392.025
716.299	402.575
716.427	389.788
716.555	389.650
716.683	390.962
716.812	386.262
716.940	391.437
717.068	382.450
717.196	378.837
717.324	386.700
717.452	377.950
717.580	377.575
717.708	372.150
717.837	385.075
717.965	373.738
718.093	371.050
718.221	368.962
718.349	371.387
718.477	373.425
718.605	362.975
718.733	369.075
718.862	360.762
718.990	366.887
719.118	368.575
719.246	359.637
719.374	357.475
719.502	367.663
719.630	371.975
719.758	355.325
719.887	353.038
720.015	356.250
720.143	353.538
720.271	357.488
720.399	356.725
720.527	354.025
720.655	342.825
720.783	351.450
720.912	353.825
721.040	359.462
721.168	345.587
721.296	348.937
721.424	345.337
721.552	336.700
721.680	338.375
721.808	347.950
721.937	347.575
722.065	336.387
722.193	334.587
722.321	340.400
722.449	338.800
722.577	334.512
722.705	331.637
722.833	329.375
722.962	330.712
723.090	322.363
723.218	329.663
723.346	327.038
723.474	326.625
723.602	325.625
723.730	324.025
723.858	326.738
723.987	322.975
724.115	313.687
724.243	322.100
724.371	312.825
724.499	323.800
724.627	313.187
724.755	327.062
724.883	321.137
725.012	314.187
725.140	311.125
725.268	318.812
725.396	308.462
725.524	305.375
725.652	309.850
725.780	307.425
725.908	313.850
726.037	305.675
726.165	306.937
726.293	301.400
726.421	302.187
726.549	308.488
726.677	302.413
726.805	299.988
726.933	305.337
727.062	295.687
727.190	297.225
727.318	292.675
727.446	301.937
727.574	301.762
727.702	290.800
727.830	292.288
727.958	300.087
728.087	295.100
728.215	288.137
728.343	288.887
728.471	289.863
728.599	286.525
728.727	295.488
728.855	282.950
728.983	284.337
729.112	283.512
729.240	286.150
729.368	282.613
729.496	283.350
729.624	288.212
729.752	276.875
729.880	285.413
730.008	285.087
730.137	274.725
730.265	280.962
730.393	276.538
730.521	276.450
730.649	285.012
730.777	276.562
730.905	271.200
731.033	277.925
731.162	271.113
731.290	278.687
731.418	271.350
731.546	293.613
731.674	268.137
731.802	270.575
731.930	269.425
732.058	272.462
732.187	271.837
732.315	263.238
732.443	271.025
732.571	263.900
732.699	261.400
732.827	267.425
732.955	263.175
733.083	256.337
733.212	257.712
733.340	258.650
733.468	264.488
733.596	256.975
733.724	247.738
733.852	259.762
733.980	252.275
734.108	263.587
734.237	262.425
734.365	254.662
734.493	262.512
734.621	251.850
734.749	258.575
734.877	257.212
735.005	252.512
735.133	251.375
735.262	251.812
735.390	250.650
735.518	250.150
735.646	249.762
735.774	251.250
735.902	244.812
736.030	246.700
736.158	249.037
736.287	246.575
736.415	245.575
736.543	243.100
736.671	243.300
736.799	240.675
736.927	246.787
737.055	247.225
737.183	244.613
737.312	248.312
737.440	251.850
737.568	256.800
737.696	243.250
737.824	241.300
737.952	252.875
738.080	240.800
738.208	246.687
738.337	232.863
738.465	249.312
738.593	237.963
738.721	230.825
738.849	237.025
738.977	238.012
739.105	234.050
739.233	237.662
739.362	228.437
739.490	230.162
739.618	235.950
739.746	231.350
739.874	234.988
740.002	229.713
740.130	226.300
740.258	234.800
740.387	232.700
740.515	224.725
740.643	228.113
740.771	235.537
740.899	230.437
741.027	223.900
741.155	230.525
741.283	221.950
741.412	229.650
741.540	218.262
741.668	226.700
741.796	222.650
741.924	227.387
742.052	223.975
742.180	224.750
742.308	214.600
742.437	222.800
742.565	225.550
742.693	222.075
742.821	221.662
742.949	220.550
743.077	225.050
743.205	218.963
743.333	221.150
743.462	228.062
743.590	220.700
743.718	209.363
743.846	218.725
743.974	209.525
744.102	208.363
744.230	215.175
744.358	209.825
744.487	224.225
744.615	210.787
744.743	216.275
744.871	208.637
744.999	210.838
745.127	212.637
745.255	204.900
745.383	206.963
745.512	210.850
745.640	201.950
745.768	211.025
745.896	208.350
746.024	207.675
746.152	202.588
746.280	208.075
746.408	214.887
746.537	211.588
746.665	209.225
746.793	210.662
746.921	202.725
747.049	199.600
747.177	209.162
747.305	203.363
747.433	204.687
747.562	197.912
747.690	200.738
747.818	197.338
747.946	200.200
748.074	217.812
748.202	201.575
748.330	193.988
748.458	204.838
748.587	202.500
748.715	193.125
748.843	204.400
748.971	194.425
749.099	195.650
749.227	198.613
749.355	188.975
749.483	195.412
749.612	194.988
749.740	192.250
749.868	192.312
749.996	187.887
750.124	196.000
750.252	195.200
750.380	193.613
750.508	192.887
750.637	189.800
750.765	189.375
750.893	185.812
751.021	193.213
751.149	192.675
751.277	200.775
751.405	190.437
751.533	195.400
751.662	194.162
751.790	200.687
751.918	201.225
752.046	186.475
752.174	186.250
752.302	193.662
752.430	189.325
752.558	185.325
752.687	189.838
752.815	194.512
752.943	185.575
753.071	183.088
753.199	181.550
753.327	191.675
753.455	179.475
753.583	176.812
753.712	180.125
753.840	181.875
753.968	179.562
754.096	176.000
754.224	177.975
754.352	172.662
754.480	175.238
754.608	179.025
754.737	177.950
754.865	174.838
754.993	181.137
755.121	175.162
755.249	182.575
755.377	177.500
755.505	175.762
755.633	194.500
755.762	173.150
755.890	191.412
756.018	181.025
756.146	173.925
756.274	176.812
756.402	170.213
756.530	176.675
756.658	182.437
756.787	170.475
756.915	164.387
757.043	175.450
757.171	175.125
757.299	170.213
757.427	167.700
757.555	176.488
757.683	180.325
757.812	171.200
757.940	175.675
758.068	169.312
758.196	166.950
758.324	169.387
758.452	165.025
758.580	165.863
758.708	173.912
758.837	166.275
758.965	176.975
759.093	169.187
759.221	164.425
759.349	169.850
759.477	165.562
759.605	162.600
759.733	169.675
759.862	166.525
759.990	163.075
760.118	165.800
760.246	160.500
760.374	166.463
760.502	166.512
760.630	170.488
760.758	159.425
760.887	158.800
761.015	158.525
761.143	164.613
761.271	159.637
761.399	159.800
761.527	161.200
761.655	161.275
761.783	161.100
761.912	156.325
762.040	165.162
762.168	160.238
762.296	159.400
762.424	154.838
762.552	157.387
762.680	163.850
762.808	158.975
762.937	163.463
763.065	160.700
763.193	157.350
763.321	157.150
763.449	151.900
763.577	152.363
763.705	158.363
763.833	179.900
763.962	153.037
764.090	153.275
764.218	153.287
764.346	157.338
764.474	153.738
764.602	154.762
764.730	150.750
764.858	155.250
764.987	152.275
765.115	163.713
765.243	160.312
765.371	150.475
765.499	149.325
765.627	151.300
765.755	152.012
765.883	150.338
766.012	150.825
766.140	145.463
766.268	152.012
766.396	148.175
766.524	146.088
766.652	144.637
766.780	147.588
766.908	154.875
767.037	149.250
767.165	146.100
767.293	158.700
767.421	148.713
767.549	149.125
767.677	151.750
767.805	146.550
767.933	155.025
768.062	148.375
768.190	146.338
768.318	144.838
768.446	156.625
768.574	155.325
768.702	151.975
768.830	146.562
768.958	143.225
769.087	150.475
769.215	145.488
769.343	146.887
769.471	146.037
769.599	149.550
769.727	145.963
769.855	150.162
769.983	144.800
770.112	142.575
770.240	150.137
770.368	143.537
770.496	141.575
770.624	141.187
770.752	147.100
770.880	158.975
771.008	141.187
771.137	144.963
771.265	144.075
771.393	143.213
771.521	145.625
771.649	143.200
771.777	140.137
771.905	149.025
772.033	146.887
772.162	145.713
772.290	143.262
772.418	151.762
772.546	142.850
772.674	141.725
772.802	146.838
772.930	144.600
773.058	140.550
773.187	146.475
773.315	143.175
773.443	143.500
773.571	140.588
773.699	139.175
773.827	141.750
773.955	144.400
774.083	153.262
774.212	137.225
774.340	141.687
774.468	143.537
774.596	139.600
774.724	148.875
774.852	133.375
774.980	142.213
775.108	139.437
775.237	131.125
775.365	136.675
775.493	138.300
775.621	140.812
775.749	138.187
775.877	141.988
776.005	134.175
776.133	141.950
776.262	139.062
776.390	132.800
776.518	145.950
776.646	135.387
776.774	133.875
776.902	137.162
777.030	139.137
777.158	138.312
777.287	137.775
777.415	139.475
777.543	134.738
777.671	135.762
777.799	134.350
777.927	138.338
778.055	139.162
778.183	141.238
778.312	132.600
778.440	129.937
778.568	137.200
778.696	133.062
778.824	140.475
778.952	136.475
779.080	137.037
779.208	139.387
779.337	136.787
779.465	136.075
779.593	136.437
779.721	139.175
779.849	133.400
779.977	134.988
780.105	134.700
780.233	133.875
780.362	143.875
780.490	135.800
780.618	134.562
780.746	132.825
780.874	129.825
781.002	130.787
781.130	131.100
781.258	133.475
781.387	137.537
781.515	133.863
781.643	134.050
781.771	139.950
781.899	133.975
782.027	132.687
782.155	132.937
782.283	128.838
782.412	133.600
782.540	137.850
782.668	131.600
782.796	128.713
782.924	131.900
783.052	125.862
783.180	133.662
783.308	128.863
783.437	134.562
783.565	136.650
783.693	131.125
783.821	137.550
783.949	129.700
784.077	131.787
784.205	132.637
784.333	136.875
784.462	128.463
784.590	132.363
784.718	134.762
784.846	127.112
784.974	132.687
785.102	141.238
785.230	131.850
785.358	139.950
785.487	129.912
785.615	133.250
785.743	127.925
785.871	125.987
785.999	132.300
786.127	122.687
786.255	138.988
786.383	138.475
786.512	130.812
786.640	127.362
786.768	133.287
786.896	130.925
787.024	132.062
787.152	126.037
787.280	125.013
787.408	126.525
787.537	125.700
787.665	129.950
787.793	130.338
787.921	130.537
788.049	125.612
788.177	127.100
788.305	124.500
788.433	128.113
788.562	126.787
788.690	122.425
788.818	127.062
788.946	127.125
789.074	123.912
789.202	129.575
789.330	125.187
789.458	125.237
789.587	126.338
789.715	129.250
789.843	128.637
789.971	124.638
790.099	122.138
790.227	125.025
790.355	123.713
790.483	130.875
790.612	125.525
790.740	125.150
790.868	132.113
790.996	127.325
791.124	126.900
791.252	126.875
791.380	130.025
791.508	126.812
791.637	135.700
791.765	121.588
791.893	119.912
792.021	131.375
792.149	125.362
792.277	126.750
792.405	126.513
792.533	132.350
792.662	120.312
792.790	122.825
792.918	130.762
793.046	121.750
793.174	125.812
793.302	125.687
793.430	125.875
793.558	131.137
793.687	121.625
793.815	125.612
793.943	129.463
794.071	124.325
794.199	122.687
794.327	126.025
794.455	142.037
794.583	139.350
794.712	128.787
794.840	122.037
794.968	123.888
795.096	128.900
795.224	120.775
795.352	122.713
795.480	127.088
795.608	125.687
795.737	127.450
795.865	124.950
795.993	117.650
796.121	120.937
796.249	121.687
796.377	123.600
796.505	128.525
796.633	123.800
796.762	123.213
796.890	129.200
797.018	121.750
797.146	116.787
797.274	114.775
797.402	118.200
797.530	121.400
797.658	119.325
797.787	129.713
797.915	123.437
798.043	121.987
798.171	124.600
798.299	119.812
798.427	119.362
798.555	123.700
798.683	119.862
798.812	120.263
798.940	122.200
799.068	120.800
799.196	129.075
799.324	120.100
799.452	123.088
799.580	120.888
799.708	127.187
799.837	121.300
799.965	119.487
800.093	118.875
800.221	121.475
800.349	121.963
800.477	122.200
800.605	122.425
800.733	122.650
800.862	121.862
800.990	138.387
801.118	127.138
801.246	120.412
801.374	122.750
801.502	124.787
801.630	119.162
801.758	118.425
801.887	122.950
802.015	115.237
802.143	114.388
802.271	117.763
802.399	120.687
802.527	118.287
802.655	120.900
802.783	125.325
802.912	120.450
803.040	122.287
803.168	119.338
803.296	116.138
803.424	122.037
803.552	118.687
803.680	117.800
803.808	120.150
803.937	121.463
804.065	119.150
804.193	115.588
804.321	116.950
804.449	115.525
804.577	115.850
804.705	118.250
804.833	114.975
804.962	121.112
805.090	114.525
805.218	119.562
805.346	113.975
805.474	116.662
805.602	126.862
805.730	117.737
805.858	115.687
805.987	123.050
806.115	120.287
806.243	121.062
806.371	114.388
806.499	118.925
806.627	115.650
806.755	127.400
806.883	119.312
807.012	115.900
807.140	118.200
807.268	115.588
807.396	117.450
807.524	114.350
807.652	117.100
807.780	128.200
807.908	115.037
808.037	123.600
808.165	120.088
808.293	115.150
808.421	124.237
808.549	111.825
808.677	112.138
808.805	124.013
808.933	119.037
809.062	117.612
809.190	130.300
809.318	116.187
809.446	113.625
809.574	112.475
809.702	116.338
809.830	115.825
809.958	121.200
810.087	116.687
810.215	121.612
810.343	128.125
810.471	117.937
810.599	117.062
810.727	113.388
810.855	110.987
810.983	115.513
811.112	115.888
811.240	116.513
811.368	120.175
811.496	124.125
811.624	116.487
811.752	113.575
811.880	111.350
812.008	111.700
812.137	115.325
812.265	116.550
812.393	115.375
812.521	117.200
812.649	115.075
812.777	115.650
812.905	118.100
813.033	114.013
813.162	113.263
813.290	112.300
813.418	125.150
813.546	117.300
813.674	110.925
813.802	117.500
813.930	113.463
814.058	111.700
814.187	111.975
814.315	116.100
814.443	114.625
814.571	114.175
814.699	122.000
814.827	114.300
814.955	119.850
815.083	116.875
815.212	115.800
815.340	115.775
815.468	114.237
815.596	115.138
815.724	115.925
815.852	119.812
815.980	112.400
816.108	114.700
816.237	113.825
816.365	111.838
816.493	116.600
816.621	112.150
816.749	111.225
816.877	112.812
817.005	115.162
817.133	112.600
817.262	111.862
817.390	114.025
817.518	114.412
817.646	116.287
817.774	114.525
817.902	117.713
818.030	113.912
818.158	118.350
818.287	112.900
818.415	110.987
818.543	114.425
818.671	116.612
818.799	112.213
818.927	115.662
819.055	110.450
819.183	106.250
819.312	110.375
819.440	113.612
819.568	111.588
819.696	120.162
819.824	114.175
819.952	111.263
820.080	111.325
820.208	109.388
820.337	112.812
820.465	114.750
820.593	111.838
820.721	112.225
820.849	111.888
820.977	111.588
821.105	110.388
821.233	109.187
821.362	115.925
821.490	109.175
821.618	111.375
821.746	114.013
821.874	114.125
822.002	113.088
822.130	112.375
822.258	109.000
822.387	112.713
822.515	111.550
822.643	111.325
822.771	111.300
822.899	112.112
823.027	109.900
823.155	108.700
823.283	113.138
823.412	112.200
823.540	114.100
823.668	123.888
823.796	109.550
823.924	115.862
824.052	118.338
824.180	109.400
824.308	116.388
824.437	117.263
824.565	110.025
824.693	110.562
824.821	111.838
824.949	113.425
825.077	110.412
825.205	115.013
825.333	111.325
825.462	110.375
825.590	109.125
825.718	117.537
825.846	114.062
825.974	114.763
826.102	113.888
826.230	111.987
826.358	111.850
826.487	108.937
826.615	109.562
826.743	111.687
826.871	116.062
826.999	115.425
827.127	114.925
827.255	112.525
827.383	110.537
827.512	114.737
827.640	113.850
827.768	110.775
827.896	108.750
828.024	109.362
828.152	110.612
828.280	111.450
828.408	111.312
828.537	108.775
828.665	110.825
828.793	109.250
828.921	109.812
829.049	112.200
829.177	110.075
829.305	109.787
829.433	112.525
829.562	113.250
829.690	110.713
829.818	114.100
829.946	110.138
830.074	108.537
830.202	111.787
830.330	110.625
830.458	119.013
830.587	110.862
830.715	109.175
830.843	111.275
830.971	109.325
831.099	113.088
831.227	111.187
831.355	108.412
831.483	108.975
831.612	112.150
831.740	109.412
831.868	112.412
831.996	107.937
832.124	109.537
832.252	106.425
832.380	108.312
832.508	111.150
832.637	114.675
832.765	110.612
832.893	113.150
833.021	111.937
833.149	108.138
833.277	111.487
833.405	108.925
833.533	111.662
833.662	110.338
833.790	107.138
833.918	109.700
834.046	111.513
834.174	115.525
834.302	110.250
834.430	110.825
834.558	117.900
834.687	109.700
834.815	110.237
834.943	108.263
835.071	108.287
835.199	108.362
835.327	108.612
835.455	107.138
835.583	108.550
835.712	111.013
835.840	113.088
835.968	108.900
836.096	110.675
836.224	113.600
836.352	107.350
836.480	109.550
836.608	114.725
836.737	109.175
836.865	108.312
836.993	109.350
837.121	109.412
837.249	106.775
837.377	111.487
837.505	109.112
837.633	109.062
837.762	107.125
837.890	108.900
838.018	114.037
838.146	109.062
838.274	110.437
838.402	114.700
838.530	107.763
838.658	104.562
838.787	112.300
838.915	111.088
839.043	110.950
839.171	117.088
839.299	111.487
839.427	112.150
839.555	117.600
839.683	111.138
839.812	108.125
839.940	107.037
840.068	111.162
840.196	107.537
840.324	112.325
840.452	111.100
840.580	112.825
840.708	110.125
840.837	111.575
840.965	112.550
841.093	112.888
841.221	109.888
841.349	109.175
841.477	110.800
841.605	105.175
841.733	107.950
841.862	109.925
841.990	109.050
842.118	108.950
842.246	107.412
842.374	105.600
842.502	109.325
842.630	107.375
842.758	107.537
842.887	109.325
843.015	109.850
843.143	112.437
843.271	112.312
843.399	110.925
843.527	107.050
843.655	108.450
843.783	107.263
843.912	107.162
844.040	112.338
844.168	115.088
844.296	115.225
844.424	111.713
844.552	111.350
844.680	115.388
844.808	111.350
844.937	110.475
845.065	108.750
845.193	109.100
845.321	106.838
845.449	109.437
845.577	109.800
845.705	110.450
845.833	110.000
845.962	108.562
846.090	108.338
846.218	108.000
846.346	111.487
846.474	112.112
846.602	107.562
846.730	106.675
846.858	106.362
846.987	108.075
847.115	108.963
847.243	110.475
847.371	111.763
847.499	108.475
847.627	105.987
847.755	105.575
847.883	108.725
848.012	112.925
848.140	110.112
848.268	108.763
848.396	109.437
848.524	109.487
848.652	109.138
848.780	106.525
848.908	109.487
849.037	105.937
849.165	106.187
849.293	109.937
849.421	114.025
849.549	108.625
849.677	108.250
849.805	115.875
849.933	109.937
850.062	107.975
850.190	107.713
850.318	110.675
850.446	109.463
850.574	105.862
850.702	106.937
850.830	110.437
850.958	115.950
851.087	109.937
851.215	116.625
851.343	110.100
851.471	107.937
851.599	109.975
851.727	110.875
851.855	107.888
851.983	110.225
852.112	110.800
852.240	111.100
852.368	107.562
852.496	106.937
852.624	105.263
852.752	107.088
852.880	106.725
853.008	112.312
853.137	110.200
853.265	107.312
853.393	112.088
853.521	114.588
853.649	113.037
853.777	107.325
853.905	109.463
854.033	109.463
854.162	108.800
854.290	110.300
854.418	107.062
854.546	107.213
854.674	109.550
854.802	110.412
854.930	106.562
855.058	105.437
855.187	104.900
855.315	107.138
855.443	103.850
855.571	105.600
855.699	106.825
855.827	105.950
855.955	104.100
856.083	106.312
856.212	106.713
856.340	106.475
856.468	111.725
856.596	108.875
856.724	109.287
856.852	107.513
856.980	105.625
857.108	111.250
857.237	111.437
857.365	111.013
857.493	107.862
857.621	106.600
857.749	107.037
857.877	110.588
858.005	111.713
858.133	108.700
858.262	107.525
858.390	106.237
858.518	104.575
858.646	107.138
858.774	108.388
858.902	108.388
859.030	109.713
859.158	107.638
859.287	110.425
859.415	111.500
859.543	104.800
859.671	111.388
859.799	110.725
859.927	109.638
860.055	107.650
860.183	106.588
860.312	107.450
860.440	109.612
860.568	111.513
860.696	109.088
860.824	120.350
860.952	107.950
861.080	108.425
861.208	108.025
861.337	109.088
861.465	109.700
861.593	116.562
861.721	109.162
861.849	109.100
861.977	108.263
862.105	109.287
862.233	114.550
862.362	109.213
862.490	108.362
862.618	104.937
862.746	104.763
862.874	106.725
863.002	109.125
863.130	111.075
863.258	109.838
863.387	111.175
863.515	110.662
863.643	107.162
863.771	108.450
863.899	108.650
864.027	107.987
864.155	108.037
864.283	107.812
864.412	105.925
864.540	105.325
864.668	106.575
864.796	106.713
864.924	108.100
865.052	110.250
865.180	108.287
865.308	105.325
865.437	110.575
865.565	108.912
865.693	106.600
865.821	109.250
865.949	108.338
866.077	109.737
866.205	107.062
866.333	106.075
866.462	107.537
866.590	107.700
866.718	108.513
866.846	108.025
866.974	108.812
867.102	112.237
867.230	116.875
867.358	111.000
867.487	108.600
867.615	109.225
867.743	108.050
867.871	110.537
867.999	108.713
868.127	107.925
868.255	118.425
868.383	111.500
868.512	105.838
868.640	109.225
868.768	109.000
868.896	111.338
869.024	110.588
869.152	111.013
869.280	109.400
869.408	107.687
869.537	106.513
869.665	111.625
869.793	108.275
869.921	109.500
870.049	111.150
870.177	110.963
870.305	115.862
870.433	108.050
870.562	108.600
870.690	108.150
870.818	108.050
870.946	108.562
871.074	106.687
871.202	112.737
871.330	107.537
871.458	107.737
871.587	108.050
871.715	105.825
871.843	109.025
871.971	110.537
872.099	106.950
872.227	106.900
872.355	108.388
872.483	108.662
872.612	109.638
872.740	111.850
872.868	105.725
872.996	110.650
873.124	109.000
873.252	111.750
873.380	108.925
873.508	108.338
873.637	107.963
873.765	112.675
873.893	109.925
874.021	110.638
874.149	108.213
874.277	109.562
874.405	111.862
874.533	109.138
874.662	328.163
874.790	114.775
874.918	112.100
875.046	109.575
875.174	110.000
875.302	105.312
875.430	111.425
875.558	109.338
875.687	109.125
875.815	108.775
875.943	109.162
876.071	112.350
876.199	110.375
876.327	112.600
876.455	110.800
876.583	107.825
876.712	110.388
876.840	108.537
876.968	105.237
877.096	107.200
877.224	106.375
877.352	105.000
877.480	106.650
877.608	107.375
877.737	106.812
877.865	106.850
877.993	111.275
878.121	108.513
878.249	112.175
878.377	107.412
878.505	104.862
878.633	108.537
878.762	107.388
878.890	107.812
879.018	109.812
879.146	111.588
879.274	107.950
879.402	108.525
879.530	109.362
879.658	113.725
879.787	110.475
879.915	110.175
880.043	107.000
880.171	106.687
880.299	108.562
880.427	111.425
880.555	111.037
880.683	112.662
880.812	109.838
880.940	113.675
881.068	109.225
881.196	106.325
881.324	109.500
881.452	109.513
881.580	108.225
881.708	111.013
881.837	107.062
881.965	108.350
882.093	108.138
882.221	106.625
882.349	115.550
882.477	111.225
882.605	116.888
882.733	111.713
882.862	107.537
882.990	106.987
883.118	108.800
883.246	109.513
883.374	111.162
883.502	107.625
883.630	105.875
883.758	107.588
883.887	107.388
884.015	106.412
884.143	106.187
884.271	107.388
884.399	109.487
884.527	109.187
884.655	108.800
884.783	106.925
884.912	109.100
885.040	107.675
885.168	107.400
885.296	110.213
885.424	108.088
885.552	113.662
885.680	109.200
885.808	109.275
885.937	113.275
886.065	112.912
886.193	108.025
886.321	107.537
886.449	107.437
886.577	111.062
886.705	108.888
886.833	109.625
886.962	107.662
887.090	108.350
887.218	107.700
887.346	108.662
887.474	113.000
887.602	110.775
887.730	107.638
887.858	111.888
887.987	108.550
888.115	114.763
888.243	112.700
888.371	111.625
888.499	112.400
888.627	110.463
888.755	111.338
888.883	108.463
889.012	106.325
889.140	109.713
889.268	116.075
889.396	120.963
889.524	110.662
889.652	111.900
889.780	110.825
889.908	110.425
890.037	104.937
890.165	108.763
890.293	109.588
890.421	106.862
890.549	110.037
890.677	109.100
890.805	109.350
890.933	108.187
891.062	107.325
891.190	112.125
891.318	112.888
891.446	111.263
891.574	109.450
891.702	109.812
891.830	106.950
891.958	110.838
892.087	112.850
892.215	109.075
892.343	109.812
892.471	108.338
892.599	111.513
892.727	111.450
892.855	109.650
892.983	107.150
893.112	107.138
893.240	111.850
893.368	111.525
893.496	109.025
893.624	109.750
893.752	110.950
893.880	108.213
894.008	107.838
894.137	111.100
894.265	114.975
894.393	116.463
894.521	115.300
894.649	112.463
894.777	107.338
894.905	107.975
895.033	117.025
895.162	110.300
895.290	116.463
895.418	110.650
895.546	111.625
895.674	115.713
895.802	108.537
895.930	109.675
896.058	106.850
896.187	108.000
896.315	110.000
896.443	112.900
896.571	113.388
896.699	110.463
896.827	108.100
896.955	111.325
897.083	110.812
897.212	109.263
897.340	105.325
897.468	108.062
897.596	110.888
897.724	117.338
897.852	116.375
897.980	111.325
898.108	109.975
898.237	107.088
898.365	107.412
898.493	107.425
898.621	109.388
898.749	108.263
898.877	108.062
899.005	109.487
899.133	109.388
899.262	108.287
899.390	108.825
899.518	110.437
899.646	110.812
899.774	116.388
899.902	122.425
900.030	114.812
900.158	110.000
900.287	110.450
900.415	109.312
900.543	108.612
900.671	110.225
900.799	108.888
900.927	112.888
901.055	107.338
901.183	111.787
901.312	111.737
901.440	115.375
901.568	111.287
901.696	109.275
901.824	111.463
901.952	116.225
902.080	109.037
902.208	111.175
902.337	110.150
902.465	109.700
902.593	111.775
902.721	111.075
902.849	111.175
902.977	110.263
903.105	114.888
903.233	117.662
903.362	109.550
903.490	112.487
903.618	108.237
903.746	110.875
903.874	110.375
904.002	109.125
904.130	113.000
904.258	113.588
904.387	109.975
904.515	108.162
904.643	109.475
904.771	109.513
904.899	111.237
905.027	111.200
905.155	109.763
905.283	109.475
905.412	114.925
905.540	112.263
905.668	109.500
905.796	109.138
905.924	109.100
906.052	112.812
906.180	108.800
906.308	115.375
906.437	114.150
906.565	111.838
906.693	110.400
906.821	108.062
906.949	111.525
907.077	112.013
907.205	112.950
907.333	112.400
907.462	110.787
907.590	112.112
907.718	113.862
907.846	111.987
907.974	111.362
908.102	109.838
908.230	110.000
908.358	117.162
908.487	112.575
908.615	112.263
908.743	112.487
908.871	113.037
908.999	112.175
909.127	110.487
909.255	107.975
909.383	111.263
909.512	115.562
909.640	110.475
909.768	114.588
909.896	120.500
910.024	116.537
910.152	117.138
910.280	122.000
910.408	112.737
910.537	120.138
910.665	118.338
910.793	116.612
910.921	118.850
911.049	116.112
911.177	111.838
911.305	115.862
911.433	113.787
911.562	112.937
911.690	113.500
911.818	124.650
911.946	124.213
912.074	115.175
912.202	123.963
912.330	116.625
912.458	116.763
912.587	119.787
912.715	118.100
912.843	116.187
912.971	116.900
913.099	116.612
913.227	119.475
913.355	119.237
913.483	119.338
913.612	117.950
913.740	142.300
913.868	117.312
