sample15_PS_at_750.00nm_cut_at_1008.00Y_01.dat
15.05.2023
12:32:51
cut middle at Y: 1008.00
top cursor: 1048 down cursor: 968 mean of: 80 lines , 2560 datapoints
wavelength(nm)	intensity[arb. units]
585.996	1928.450
586.124	1874.550
586.252	1864.525
586.380	1857.000
586.508	1853.625
586.637	1871.900
586.765	1862.263
586.893	1862.687
587.021	1868.925
587.149	1871.900
587.277	1857.225
587.405	1874.088
587.533	1840.662
587.662	1860.662
587.790	1890.775
587.918	1866.487
588.046	1868.500
588.174	1856.575
588.302	1882.250
588.430	1862.162
588.558	1871.000
588.687	1874.925
588.815	1893.537
588.943	1881.963
589.071	1863.350
589.199	1877.763
589.327	1867.875
589.455	1854.025
589.583	1860.475
589.712	1871.525
589.840	1866.850
589.968	1850.838
590.096	1849.775
590.224	1865.125
590.352	1849.687
590.480	1837.963
590.608	1860.975
590.737	1834.763
590.865	1858.963
590.993	1838.050
591.121	1842.650
591.249	1845.687
591.377	1832.800
591.505	1831.013
591.633	1842.600
591.762	1845.263
591.890	1847.862
592.018	1836.775
592.146	1854.125
592.274	1854.612
592.402	1839.687
592.530	1830.213
592.658	1846.050
592.787	1851.750
592.915	1832.450
593.043	1840.375
593.171	1850.550
593.299	1861.625
593.427	1844.812
593.555	1845.062
593.683	1833.437
593.812	1827.713
593.940	1860.825
594.068	1853.175
594.196	1875.888
594.324	1853.463
594.452	1884.100
594.580	1880.825
594.708	1860.300
594.837	1877.025
594.965	1873.912
595.093	1883.475
595.221	1868.937
595.349	1899.112
595.477	1871.537
595.605	1885.100
595.733	1902.225
595.862	1902.125
595.990	1888.025
596.118	1908.175
596.246	1924.400
596.374	1920.900
596.502	1942.600
596.630	1921.275
596.758	1929.475
596.887	1938.025
597.015	1956.875
597.143	1907.487
597.271	1939.625
597.399	1940.200
597.527	1936.925
597.655	1947.400
597.783	1943.275
597.912	1929.312
598.040	1928.600
598.168	1926.737
598.296	1928.787
598.424	1934.437
598.552	1932.575
598.680	1920.588
598.808	1916.275
598.937	1921.000
599.065	1927.138
599.193	1923.687
599.321	1901.425
599.449	1932.225
599.577	1905.375
599.705	1914.225
599.833	1911.825
599.962	1905.675
600.090	1905.263
600.218	1891.400
600.346	1921.963
600.474	1900.500
600.602	1900.437
600.730	1908.250
600.858	1908.725
600.987	1903.763
601.115	1895.175
601.243	1877.225
601.371	1899.550
601.499	1901.088
601.627	1917.575
601.755	1918.225
601.883	1896.287
602.012	1925.450
602.140	1913.112
602.268	1932.825
602.396	1933.162
602.524	1940.250
602.652	1955.963
602.780	1935.187
602.908	1955.800
603.037	1950.588
603.165	1953.450
603.293	1976.100
603.421	1977.463
603.549	1960.925
603.677	2003.312
603.805	1968.312
603.933	1996.838
604.062	1998.325
604.190	2020.700
604.318	2001.937
604.446	2032.162
604.574	2017.687
604.702	2026.500
604.830	2023.225
604.958	2056.787
605.087	2082.713
605.215	2071.262
605.343	2068.488
605.471	2071.912
605.599	2074.275
605.727	2083.475
605.855	2098.900
605.983	2081.450
606.112	2093.800
606.240	2105.400
606.368	2118.637
606.496	2149.713
606.624	2107.500
606.752	2129.950
606.880	2147.062
607.008	2174.363
607.137	2171.088
607.265	2134.775
607.393	2140.850
607.521	2171.238
607.649	2146.412
607.777	2138.125
607.905	2132.512
608.033	2178.125
608.162	2145.725
608.290	2158.687
608.418	2170.238
608.546	2156.562
608.674	2174.425
608.802	2134.588
608.930	2169.738
609.058	2160.200
609.187	2167.537
609.315	2170.325
609.443	2158.687
609.571	2180.137
609.699	2160.437
609.827	2164.937
609.955	2177.925
610.083	2165.500
610.212	2145.937
610.340	2148.150
610.468	2165.463
610.596	2178.400
610.724	2169.575
610.852	2161.850
610.980	2160.863
611.108	2175.262
611.237	2154.275
611.365	2176.400
611.493	2152.550
611.621	2173.988
611.749	2170.875
611.877	2187.838
612.005	2160.162
612.133	2183.025
612.262	2172.687
612.390	2190.800
612.518	2186.550
612.646	2197.750
612.774	2189.000
612.902	2194.887
613.030	2185.812
613.158	2220.187
613.287	2223.675
613.415	2219.300
613.543	2216.713
613.671	2210.375
613.799	2240.113
613.927	2216.037
614.055	2232.475
614.183	2262.700
614.312	2234.775
614.440	2265.100
614.568	2250.225
614.696	2252.412
614.824	2296.713
614.952	2246.075
615.080	2279.338
615.208	2265.338
615.337	2295.250
615.465	2282.488
615.593	2299.800
615.721	2308.025
615.849	2315.588
615.977	2319.713
616.105	2333.963
616.233	2328.812
616.362	2370.162
616.490	2332.562
616.618	2338.287
616.746	2351.912
616.874	2376.062
617.002	2372.187
617.130	2393.687
617.258	2404.562
617.387	2371.725
617.515	2371.838
617.643	2390.363
617.771	2390.762
617.899	2406.400
618.027	2392.275
618.155	2427.125
618.283	2400.550
618.412	2425.600
618.540	2435.562
618.668	2411.637
618.796	2429.475
618.924	2478.725
619.052	2429.537
619.180	2403.562
619.308	2444.162
619.437	2407.400
619.565	2445.537
619.693	2443.450
619.821	2448.312
619.949	2425.800
620.077	2450.762
620.205	2470.075
620.333	2459.625
620.462	2473.687
620.590	2495.213
620.718	2466.937
620.846	2504.625
620.974	2533.262
621.102	2484.012
621.230	2460.537
621.358	2541.225
621.487	2470.762
621.615	2497.425
621.743	2499.275
621.871	2490.650
621.999	2528.137
622.127	2488.250
622.255	2498.100
622.383	2495.300
622.512	2491.225
622.640	2571.450
622.768	2492.900
622.896	2487.050
623.024	2492.088
623.152	2528.975
623.280	2511.637
623.408	2485.537
623.537	2501.025
623.665	2499.137
623.793	2535.437
623.921	2478.625
624.049	2487.025
624.177	2517.425
624.305	2519.975
624.433	2527.125
624.562	2512.225
624.690	2513.600
624.818	2552.937
624.946	2608.787
625.074	2544.437
625.202	2520.363
625.330	2517.887
625.458	2546.225
625.587	2509.750
625.715	2548.425
625.843	2582.363
625.971	2532.500
626.099	2545.187
626.227	2531.150
626.355	2521.900
626.483	2565.175
626.612	2512.800
626.740	2525.475
626.868	2557.037
626.996	2523.600
627.124	2532.350
627.252	2521.213
627.380	2563.713
627.508	2553.187
627.637	2547.225
627.765	2560.963
627.893	2564.562
628.021	2549.425
628.149	2582.625
628.277	2595.675
628.405	2636.412
628.533	2547.963
628.662	2592.463
628.790	2582.725
628.918	2577.975
629.046	2585.937
629.174	2585.887
629.302	2660.675
629.430	2598.800
629.558	2604.200
629.687	2614.125
629.815	2626.375
629.943	2639.725
630.071	2642.750
630.199	2637.750
630.327	2652.675
630.455	2624.262
630.583	2703.037
630.712	2695.113
630.840	2663.200
630.968	2708.287
631.096	2669.338
631.224	2665.650
631.352	2675.750
631.480	2699.325
631.608	2707.600
631.737	2748.650
631.865	2815.775
631.993	2699.250
632.121	2783.300
632.249	2773.175
632.377	2762.338
632.505	2760.012
632.633	2722.262
632.762	2779.863
632.890	2838.975
633.018	2752.275
633.146	2759.375
633.274	2779.775
633.402	2765.437
633.530	2752.762
633.658	2860.088
633.787	2739.950
633.915	2815.575
634.043	2794.338
634.171	2771.463
634.299	2820.812
634.427	2837.713
634.555	2811.363
634.683	2795.250
634.812	2792.500
634.940	2811.400
635.068	2777.000
635.196	2825.550
635.324	2815.287
635.452	2841.000
635.580	2806.088
635.708	2805.387
635.837	2835.275
635.965	2827.050
636.093	2830.175
636.221	2797.075
636.349	2849.175
636.477	2787.037
636.605	2895.713
636.733	2775.713
636.862	2793.650
636.990	2789.850
637.118	2848.162
637.246	2811.975
637.374	2797.613
637.502	2782.025
637.630	2783.025
637.758	2794.562
637.887	2785.762
638.015	2783.787
638.143	2794.025
638.271	2779.912
638.399	2774.662
638.527	2767.512
638.655	2760.588
638.783	2862.238
638.912	2797.713
639.040	2772.637
639.168	2772.137
639.296	2770.900
639.424	2869.950
639.552	2753.500
639.680	2797.338
639.808	2799.000
639.937	2735.200
640.065	2754.113
640.193	2815.050
640.321	2758.975
640.449	2815.625
640.577	2828.575
640.705	2754.175
640.833	2843.363
640.962	2762.588
641.090	2761.725
641.218	2766.425
641.346	2764.238
641.474	2787.875
641.602	2771.437
641.730	2764.675
641.858	2769.437
641.987	2802.500
642.115	2775.412
642.243	2817.225
642.371	2817.275
642.499	2792.887
642.627	2791.175
642.755	2835.912
642.883	2841.250
643.012	2792.350
643.140	2777.912
643.268	2800.100
643.396	2814.575
643.524	2892.725
643.652	2797.900
643.780	2818.062
643.908	2825.537
644.037	2892.338
644.165	2800.937
644.293	2828.687
644.421	2802.100
644.549	2873.187
644.677	2823.725
644.805	2867.762
644.933	2818.850
645.062	2834.700
645.190	2843.500
645.318	2868.537
645.446	2865.262
645.574	2874.738
645.702	2857.675
645.830	2945.225
645.958	2853.650
646.087	2966.525
646.215	2851.887
646.343	2959.850
646.471	2891.588
646.599	2922.963
646.727	2871.200
646.855	2883.650
646.983	2902.975
647.112	2871.687
647.240	2984.262
647.368	2875.500
647.496	2901.500
647.624	2860.463
647.752	2875.025
647.880	2881.725
648.008	2876.525
648.137	2872.800
648.265	2860.937
648.393	2873.512
648.521	2906.325
648.649	2888.400
648.777	2858.713
648.905	2856.537
649.033	2861.950
649.162	2865.000
649.290	2873.963
649.418	2901.637
649.546	2861.125
649.674	2921.425
649.802	2879.738
649.930	2943.738
650.058	2829.200
650.187	2858.650
650.315	2837.875
650.443	2884.387
650.571	2855.625
650.699	2832.625
650.827	2838.562
650.955	2845.150
651.083	2849.613
651.212	2872.700
651.340	2869.812
651.468	2854.637
651.596	2827.037
651.724	2823.812
651.852	2818.800
651.980	2783.488
652.108	2893.650
652.237	2821.762
652.365	2858.963
652.493	2800.275
652.621	2808.725
652.749	2848.637
652.877	2801.475
653.005	2823.875
653.133	2789.950
653.262	2836.937
653.390	2783.137
653.518	2863.025
653.646	2807.887
653.774	2892.787
653.902	2822.825
654.030	2773.075
654.158	2788.375
654.287	2778.225
654.415	2794.812
654.543	2794.588
654.671	2803.012
654.799	2768.075
654.927	2774.150
655.055	2743.950
655.183	2769.787
655.312	2750.312
655.440	2772.225
655.568	2751.475
655.696	2805.050
655.824	2814.050
655.952	2763.200
656.080	2732.100
656.208	2822.350
656.337	2752.525
656.465	2767.700
656.593	2765.562
656.721	2769.287
656.849	2792.850
656.977	2729.100
657.105	2727.150
657.233	2711.500
657.362	2721.500
657.490	2718.637
657.618	2712.387
657.746	2706.963
657.874	2699.512
658.002	2687.637
658.130	2718.713
658.258	2695.400
658.387	2716.825
658.515	2676.363
658.643	2728.113
658.771	2684.725
658.899	2699.387
659.027	2688.775
659.155	2688.338
659.283	2773.100
659.412	2687.937
659.540	2733.838
659.668	2686.550
659.796	2676.963
659.924	2731.937
660.052	2658.637
660.180	2686.775
660.308	2674.162
660.437	2678.213
660.565	2646.937
660.693	2639.338
660.821	2652.525
660.949	2650.475
661.077	2643.062
661.205	2659.975
661.333	2617.637
661.462	2709.900
661.590	2658.488
661.718	2706.575
661.846	2672.850
661.974	2720.850
662.102	2646.137
662.230	2662.637
662.358	2635.262
662.487	2629.850
662.615	2604.187
662.743	2596.912
662.871	2625.175
662.999	2598.738
663.127	2591.200
663.255	2657.012
663.383	2652.150
663.512	2578.650
663.640	2598.850
663.768	2590.713
663.896	2603.912
664.024	2611.325
664.152	2600.512
664.280	2612.062
664.408	2598.838
664.537	2619.400
664.665	2569.412
664.793	2560.925
664.921	2561.125
665.049	2560.950
665.177	2580.900
665.305	2579.025
665.433	2569.812
665.562	2562.863
665.690	2582.787
665.818	2623.575
665.946	2586.975
666.074	2559.863
666.202	2540.287
666.330	2565.637
666.458	2561.238
666.587	2525.863
666.715	2556.800
666.843	2544.275
666.971	2538.150
667.099	2537.575
667.227	2534.100
667.355	2539.475
667.483	2523.275
667.612	2536.988
667.740	2540.262
667.868	2562.713
667.996	2538.325
668.124	2528.537
668.252	2517.762
668.380	2504.475
668.508	2535.675
668.637	2508.825
668.765	2513.200
668.893	2534.375
669.021	2502.350
669.149	2522.637
669.277	2517.312
669.405	2501.437
669.533	2511.887
669.662	2579.338
669.790	2487.637
669.918	2519.225
670.046	2488.250
670.174	2523.575
670.302	2520.225
670.430	2473.325
670.558	2501.225
670.687	2484.000
670.815	2532.575
670.943	2458.000
671.071	2456.425
671.199	2475.137
671.327	2437.475
671.455	2455.262
671.583	2437.537
671.712	2473.537
671.840	2428.062
671.968	2428.275
672.096	2427.575
672.224	2416.800
672.352	2467.550
672.480	2418.637
672.608	2398.863
672.737	2399.812
672.865	2426.637
672.993	2407.963
673.121	2387.750
673.249	2393.100
673.377	2378.675
673.505	2387.787
673.633	2367.162
673.762	2350.562
673.890	2363.800
674.018	2425.262
674.146	2347.187
674.274	2376.037
674.402	2404.375
674.530	2339.175
674.658	2344.937
674.787	2328.525
674.915	2314.825
675.043	2337.937
675.171	2331.075
675.299	2324.100
675.427	2301.262
675.555	2299.025
675.683	2288.775
675.812	2281.800
675.940	2283.238
676.068	2302.075
676.196	2280.475
676.324	2276.988
676.452	2272.375
676.580	2263.738
676.708	2258.537
676.837	2277.550
676.965	2248.025
677.093	2261.213
677.221	2219.500
677.349	2209.050
677.477	2226.613
677.605	2207.175
677.733	2234.613
677.862	2208.162
677.990	2202.175
678.118	2193.075
678.246	2185.775
678.374	2173.675
678.502	2169.325
678.630	2166.787
678.758	2168.725
678.887	2175.912
679.015	2166.363
679.143	2146.113
679.271	2144.625
679.399	2153.700
679.527	2130.675
679.655	2130.675
679.783	2145.700
679.912	2131.400
680.040	2132.238
680.168	2117.687
680.296	2090.738
680.424	2111.613
680.552	2105.588
680.680	2119.037
680.808	2086.437
680.937	2080.662
681.065	2102.412
681.193	2086.150
681.321	2083.250
681.449	2091.687
681.577	2066.825
681.705	2059.412
681.833	2044.638
681.962	2036.525
682.090	2084.238
682.218	2042.737
682.346	2042.150
682.474	2044.562
682.602	2048.812
682.730	2037.787
682.858	2022.825
682.987	2054.500
683.115	2029.662
683.243	2006.362
683.371	2012.412
683.499	2003.675
683.627	2024.662
683.755	1993.987
683.883	2027.487
684.012	1998.312
684.140	1986.588
684.268	1990.787
684.396	1989.338
684.524	1980.912
684.652	2001.187
684.780	1986.675
684.908	1988.050
685.037	1976.950
685.165	1970.987
685.293	1966.088
685.421	1960.600
685.549	1953.687
685.677	1974.500
685.805	1965.162
685.933	1974.037
686.062	1936.750
686.190	1944.237
686.318	1965.537
686.446	1949.838
686.574	1924.900
686.702	1954.237
686.830	1943.713
686.958	1923.388
687.087	1919.575
687.215	1911.025
687.343	1910.800
687.471	1916.838
687.599	1899.850
687.727	1923.575
687.855	1922.912
687.983	1899.975
688.112	1917.187
688.240	1881.725
688.368	1886.612
688.496	1895.875
688.624	1893.687
688.752	1858.875
688.880	1862.112
689.008	1878.750
689.137	1858.037
689.265	1863.650
689.393	1843.025
689.521	1848.425
689.649	1858.487
689.777	1844.562
689.905	1853.825
690.033	1852.162
690.162	1832.187
690.290	1828.250
690.418	1829.650
690.546	1855.437
690.674	1845.937
690.802	1817.662
690.930	1822.725
691.058	1806.888
691.187	1803.763
691.315	1809.187
691.443	1811.062
691.571	1789.600
691.699	1761.975
691.827	1786.925
691.955	1777.750
692.083	1771.400
692.212	1781.550
692.340	1783.325
692.468	1775.025
692.596	1763.650
692.724	1761.775
692.852	1736.737
692.980	1754.900
693.108	1736.225
693.237	1717.475
693.365	1727.100
693.493	1710.537
693.621	1698.225
693.749	1698.463
693.877	1696.650
694.005	1685.900
694.133	1700.412
694.262	1688.375
694.390	1674.437
694.518	1646.500
694.646	1669.650
694.774	1652.525
694.902	1651.025
695.030	1671.763
695.158	1625.925
695.287	1650.400
695.415	1632.237
695.543	1621.937
695.671	1626.850
695.799	1608.787
695.927	1604.200
696.055	1599.013
696.183	1621.888
696.312	1607.600
696.440	1598.050
696.568	1582.925
696.696	1575.638
696.824	1572.200
696.952	1578.175
697.080	1556.037
697.208	1576.025
697.337	1549.112
697.465	1535.287
697.593	1537.025
697.721	1546.662
697.849	1528.375
697.977	1533.437
698.105	1535.650
698.233	1514.725
698.362	1511.487
698.490	1507.963
698.618	1507.750
698.746	1502.463
698.874	1505.138
699.002	1503.350
699.130	1497.500
699.258	1483.625
699.387	1468.062
699.515	1474.912
699.643	1492.025
699.771	1472.763
699.899	1455.650
700.027	1454.588
700.155	1452.275
700.283	1459.338
700.412	1442.537
700.540	1427.150
700.668	1436.700
700.796	1429.612
700.924	1413.612
701.052	1416.463
701.180	1422.662
701.308	1413.937
701.437	1396.500
701.565	1398.638
701.693	1394.425
701.821	1407.487
701.949	1402.412
702.077	1371.525
702.205	1392.625
702.333	1378.687
702.462	1369.200
702.590	1366.862
702.718	1373.388
702.846	1354.687
702.974	1371.875
703.102	1342.650
703.230	1345.912
703.358	1346.925
703.487	1318.750
703.615	1341.200
703.743	1322.900
703.871	1328.963
703.999	1301.850
704.127	1306.900
704.255	1300.200
704.383	1302.463
704.512	1288.900
704.640	1297.425
704.768	1276.862
704.896	1280.687
705.024	1280.625
705.152	1273.875
705.280	1259.250
705.408	1256.862
705.537	1259.588
705.665	1257.025
705.793	1239.537
705.921	1239.237
706.049	1255.900
706.177	1234.775
706.305	1238.275
706.433	1218.912
706.562	1216.537
706.690	1217.075
706.818	1205.525
706.946	1206.925
707.074	1207.713
707.202	1181.850
707.330	1202.088
707.458	1191.638
707.587	1193.800
707.715	1188.287
707.843	1176.975
707.971	1186.200
708.099	1181.550
708.227	1146.487
708.355	1150.450
708.483	1156.025
708.612	1151.588
708.740	1146.937
708.868	1141.325
708.996	1145.300
709.124	1149.900
709.252	1137.888
709.380	1128.575
709.508	1115.963
709.637	1117.450
709.765	1121.138
709.893	1106.463
710.021	1111.275
710.149	1093.362
710.277	1114.088
710.405	1108.838
710.533	1084.550
710.662	1085.575
710.790	1099.013
710.918	1088.237
711.046	1085.625
711.174	1078.787
711.302	1075.237
711.430	1067.425
711.558	1082.950
711.687	1066.675
711.815	1054.475
711.943	1068.062
712.071	1058.937
712.199	1042.088
712.327	1043.912
712.455	1046.562
712.583	1046.088
712.712	1051.450
712.840	1040.612
712.968	1024.050
713.096	1029.275
713.224	1028.513
713.352	1022.862
713.480	1014.775
713.608	1011.525
713.737	1005.725
713.865	995.875
713.993	1002.050
714.121	997.600
714.249	1004.100
714.377	990.750
714.505	988.913
714.633	979.275
714.762	983.075
714.890	980.825
715.018	976.212
715.146	967.013
715.274	967.413
715.402	965.975
715.530	963.087
715.658	952.100
715.787	952.525
715.915	951.800
716.043	938.300
716.171	951.712
716.299	961.862
716.427	945.462
716.555	943.600
716.683	941.150
716.812	934.075
716.940	934.900
717.068	915.062
717.196	925.263
717.324	919.763
717.452	912.862
717.580	916.250
717.708	904.112
717.837	916.237
717.965	908.750
718.093	901.337
718.221	899.913
718.349	895.000
718.477	889.888
718.605	883.075
718.733	890.763
718.862	877.500
718.990	874.400
719.118	883.175
719.246	886.888
719.374	872.500
719.502	879.462
719.630	881.875
719.758	868.750
719.887	858.575
720.015	877.250
720.143	848.875
720.271	860.375
720.399	849.538
720.527	856.212
720.655	844.388
720.783	833.888
720.912	832.875
721.040	847.812
721.168	828.163
721.296	835.125
721.424	822.275
721.552	823.263
721.680	823.150
721.808	833.013
721.937	823.650
722.065	823.100
722.193	802.487
722.321	818.087
722.449	808.788
722.577	811.638
722.705	799.462
722.833	801.725
722.962	807.375
723.090	782.687
723.218	788.375
723.346	788.437
723.474	792.250
723.602	783.675
723.730	781.400
723.858	785.975
723.987	777.650
724.115	769.962
724.243	771.038
724.371	770.138
724.499	764.750
724.627	761.650
724.755	763.900
724.883	762.975
725.012	757.288
725.140	756.638
725.268	754.275
725.396	742.062
725.524	742.550
725.652	740.225
725.780	730.525
725.908	739.350
726.037	730.337
726.165	735.175
726.293	723.538
726.421	724.737
726.549	725.062
726.677	726.587
726.805	721.700
726.933	726.062
727.062	708.500
727.190	703.862
727.318	705.862
727.446	705.775
727.574	712.413
727.702	702.475
727.830	691.312
727.958	701.275
728.087	687.187
728.215	684.312
728.343	685.725
728.471	686.112
728.599	679.788
728.727	687.638
728.855	679.125
728.983	670.513
729.112	674.038
729.240	681.663
729.368	666.587
729.496	676.575
729.624	676.925
729.752	658.812
729.880	660.725
730.008	664.937
730.137	656.513
730.265	660.800
730.393	651.925
730.521	655.663
730.649	647.275
730.777	646.263
730.905	642.437
731.033	636.950
731.162	642.462
731.290	641.950
731.418	640.100
731.546	653.712
731.674	627.650
731.802	624.362
731.930	633.850
732.058	627.175
732.187	623.263
732.315	622.788
732.443	622.062
732.571	611.687
732.699	612.638
732.827	613.325
732.955	611.562
733.083	605.625
733.212	599.725
733.340	607.275
733.468	607.462
733.596	602.788
733.724	593.962
733.852	607.413
733.980	594.937
734.108	601.350
734.237	604.513
734.365	583.475
734.493	596.100
734.621	585.075
734.749	586.038
734.877	588.525
735.005	580.913
735.133	584.150
735.262	588.125
735.390	582.288
735.518	573.250
735.646	575.038
735.774	571.638
735.902	570.925
736.030	574.962
736.158	576.250
736.287	563.487
736.415	572.450
736.543	567.687
736.671	556.263
736.799	551.987
736.927	570.038
737.055	561.675
737.183	551.250
737.312	557.587
737.440	564.825
737.568	570.987
737.696	554.575
737.824	551.625
737.952	552.263
738.080	550.425
738.208	553.612
738.337	540.212
738.465	552.337
738.593	537.450
738.721	528.625
738.849	537.587
738.977	541.538
739.105	535.275
739.233	531.825
739.362	533.700
739.490	527.237
739.618	525.337
739.746	526.600
739.874	539.038
740.002	523.200
740.130	518.187
740.258	526.875
740.387	524.825
740.515	519.000
740.643	519.562
740.771	523.725
740.899	515.775
741.027	512.050
741.155	513.212
741.283	507.738
741.412	511.625
741.540	504.375
741.668	499.625
741.796	502.288
741.924	503.950
742.052	508.250
742.180	496.312
742.308	498.425
742.437	499.900
742.565	503.175
742.693	494.475
742.821	495.350
742.949	488.562
743.077	493.300
743.205	495.962
743.333	487.000
743.462	493.325
743.590	489.000
743.718	482.962
743.846	478.687
743.974	483.350
744.102	463.775
744.230	479.837
744.358	469.137
744.487	484.825
744.615	476.825
744.743	475.875
744.871	464.937
744.999	476.025
745.127	464.050
745.255	464.512
745.383	474.750
745.512	469.937
745.640	455.200
745.768	456.863
745.896	454.937
746.024	459.725
746.152	448.137
746.280	459.125
746.408	464.812
746.537	455.387
746.665	457.687
746.793	453.587
746.921	445.788
747.049	445.200
747.177	448.863
747.305	445.437
747.433	446.450
747.562	440.587
747.690	435.550
747.818	444.212
747.946	438.075
748.074	457.887
748.202	440.925
748.330	434.012
748.458	434.950
748.587	431.700
748.715	427.262
748.843	429.875
748.971	428.113
749.099	427.163
749.227	423.275
749.355	425.000
749.483	422.637
749.612	414.488
749.740	415.450
749.868	418.350
749.996	417.337
750.124	414.812
750.252	415.550
750.380	414.437
750.508	418.137
750.637	407.812
750.765	409.462
750.893	406.325
751.021	409.250
751.149	406.700
751.277	412.937
751.405	408.625
751.533	411.375
751.662	410.337
751.790	413.887
751.918	413.062
752.046	397.512
752.174	394.500
752.302	403.988
752.430	403.613
752.558	389.437
752.687	392.775
752.815	401.087
752.943	392.300
753.071	387.312
753.199	387.975
753.327	391.613
753.455	382.925
753.583	381.962
753.712	386.562
753.840	380.288
753.968	378.125
754.096	379.913
754.224	378.488
754.352	376.988
754.480	372.125
754.608	370.850
754.737	370.863
754.865	372.250
754.993	376.437
755.121	369.512
755.249	380.512
755.377	359.550
755.505	358.000
755.633	382.975
755.762	363.163
755.890	375.350
756.018	368.363
756.146	360.000
756.274	369.962
756.402	352.075
756.530	364.900
756.658	367.538
756.787	359.250
756.915	349.262
757.043	348.275
757.171	354.863
757.299	348.163
757.427	351.262
757.555	344.875
757.683	353.538
757.812	345.900
757.940	348.250
758.068	347.538
758.196	338.687
758.324	344.262
758.452	334.800
758.580	341.725
758.708	344.512
758.837	342.300
758.965	345.288
759.093	335.863
759.221	341.050
759.349	338.100
759.477	327.087
759.605	332.575
759.733	327.550
759.862	334.550
759.990	322.437
760.118	334.675
760.246	321.913
760.374	326.038
760.502	323.637
760.630	322.000
760.758	317.363
760.887	312.812
761.015	321.038
761.143	320.663
761.271	316.587
761.399	316.975
761.527	312.975
761.655	315.225
761.783	315.062
761.912	307.687
762.040	311.325
762.168	313.225
762.296	310.488
762.424	304.725
762.552	306.837
762.680	310.750
762.808	301.413
762.937	304.937
763.065	306.738
763.193	302.650
763.321	303.163
763.449	297.375
763.577	294.488
763.705	300.363
763.833	323.600
763.962	292.500
764.090	295.900
764.218	291.988
764.346	298.500
764.474	284.762
764.602	289.725
764.730	291.900
764.858	289.437
764.987	286.712
765.115	295.087
765.243	299.200
765.371	284.238
765.499	278.262
765.627	281.788
765.755	281.700
765.883	278.875
766.012	283.587
766.140	281.825
766.268	280.387
766.396	274.850
766.524	269.875
766.652	272.488
766.780	277.775
766.908	278.100
767.037	276.250
767.165	276.025
767.293	283.437
767.421	274.150
767.549	266.800
767.677	274.137
767.805	264.075
767.933	273.725
768.062	272.150
768.190	264.863
768.318	261.650
768.446	281.925
768.574	275.825
768.702	272.100
768.830	263.950
768.958	261.725
769.087	270.137
769.215	264.113
769.343	262.413
769.471	262.850
769.599	265.312
769.727	257.187
769.855	264.200
769.983	261.712
770.112	255.512
770.240	258.613
770.368	257.875
770.496	253.900
770.624	254.275
770.752	260.062
770.880	265.575
771.008	253.275
771.137	255.537
771.265	252.988
771.393	252.900
771.521	255.262
771.649	246.887
771.777	249.312
771.905	250.912
772.033	248.463
772.162	249.588
772.290	254.562
772.418	258.337
772.546	242.887
772.674	245.937
772.802	249.488
772.930	251.963
773.058	244.000
773.187	241.238
773.315	248.238
773.443	244.750
773.571	245.375
773.699	241.525
773.827	240.637
773.955	244.187
774.083	254.525
774.212	239.162
774.340	239.312
774.468	244.887
774.596	239.425
774.724	242.300
774.852	229.887
774.980	237.113
775.108	236.463
775.237	232.775
775.365	231.287
775.493	232.262
775.621	236.137
775.749	235.437
775.877	235.300
776.005	230.700
776.133	235.088
776.262	233.338
776.390	230.088
776.518	235.338
776.646	227.450
776.774	224.687
776.902	233.650
777.030	226.162
777.158	227.887
777.287	228.537
777.415	229.137
777.543	224.550
777.671	219.062
777.799	220.012
777.927	226.800
778.055	229.162
778.183	227.800
778.312	227.012
778.440	218.050
778.568	224.875
778.696	223.075
778.824	223.575
778.952	222.088
779.080	218.088
779.208	220.963
779.337	223.338
779.465	221.400
779.593	217.463
779.721	219.187
779.849	218.900
779.977	218.113
780.105	211.425
780.233	212.625
780.362	225.400
780.490	220.262
780.618	208.450
780.746	211.850
780.874	209.850
781.002	205.125
781.130	210.300
781.258	209.012
781.387	212.488
781.515	206.675
781.643	212.162
781.771	217.525
781.899	208.113
782.027	210.162
782.155	205.800
782.283	204.562
782.412	204.963
782.540	209.300
782.668	208.262
782.796	204.062
782.924	205.800
783.052	194.287
783.180	208.800
783.308	203.412
783.437	205.100
783.565	207.125
783.693	208.575
783.821	204.425
783.949	200.950
784.077	200.262
784.205	200.062
784.333	213.137
784.462	194.500
784.590	202.562
784.718	198.838
784.846	195.600
784.974	201.075
785.102	204.475
785.230	196.312
785.358	202.500
785.487	199.512
785.615	198.250
785.743	195.887
785.871	193.613
785.999	194.875
786.127	189.738
786.255	201.512
786.383	203.387
786.512	189.175
786.640	192.525
786.768	198.262
786.896	191.537
787.024	192.825
787.152	193.637
787.280	186.437
787.408	188.387
787.537	191.312
787.665	189.412
787.793	190.637
787.921	191.437
788.049	182.850
788.177	185.738
788.305	187.162
788.433	190.600
788.562	182.838
788.690	185.075
788.818	183.262
788.946	184.100
789.074	181.925
789.202	185.338
789.330	188.675
789.458	184.312
789.587	184.225
789.715	187.463
789.843	183.863
789.971	184.738
790.099	180.162
790.227	180.988
790.355	173.175
790.483	184.262
790.612	183.200
790.740	180.975
790.868	186.863
790.996	178.200
791.124	184.562
791.252	182.537
791.380	181.075
791.508	177.725
791.637	191.412
791.765	172.088
791.893	177.863
792.021	181.900
792.149	174.162
792.277	179.275
792.405	174.675
792.533	186.250
792.662	170.762
792.790	174.175
792.918	179.713
793.046	169.463
793.174	176.713
793.302	177.425
793.430	176.425
793.558	182.863
793.687	170.225
793.815	175.887
793.943	177.312
794.071	173.437
794.199	171.687
794.327	173.613
794.455	187.137
794.583	187.637
794.712	176.137
794.840	169.838
794.968	169.037
795.096	175.338
795.224	166.463
795.352	163.175
795.480	174.200
795.608	166.512
795.737	169.387
795.865	169.825
795.993	165.863
796.121	164.562
796.249	167.238
796.377	165.262
796.505	171.488
796.633	168.637
796.762	162.400
796.890	172.713
797.018	166.588
797.146	164.675
797.274	161.762
797.402	160.512
797.530	165.412
797.658	163.088
797.787	168.500
797.915	162.812
798.043	166.988
798.171	164.887
798.299	163.588
798.427	161.437
798.555	162.963
798.683	156.838
798.812	162.937
798.940	163.912
799.068	160.713
799.196	166.988
799.324	157.950
799.452	168.537
799.580	156.825
799.708	170.325
799.837	154.113
799.965	156.800
800.093	158.562
800.221	161.137
800.349	162.637
800.477	157.988
800.605	162.700
800.733	158.375
800.862	156.812
800.990	170.400
801.118	158.963
801.246	152.400
801.374	153.238
801.502	157.863
801.630	153.450
801.758	152.937
801.887	158.750
802.015	154.613
802.143	156.387
802.271	155.450
802.399	155.650
802.527	158.387
802.655	156.600
802.783	163.175
802.912	153.125
803.040	158.238
803.168	151.725
803.296	147.700
803.424	151.488
803.552	150.387
803.680	147.488
803.808	153.887
803.937	151.387
804.065	147.488
804.193	148.738
804.321	159.825
804.449	149.775
804.577	151.325
804.705	152.062
804.833	152.137
804.962	151.537
805.090	144.912
805.218	156.700
805.346	146.137
805.474	146.812
805.602	161.338
805.730	146.838
805.858	146.887
805.987	154.325
806.115	152.762
806.243	147.650
806.371	145.625
806.499	144.562
806.627	141.875
806.755	149.988
806.883	142.600
807.012	145.150
807.140	148.800
807.268	143.675
807.396	146.437
807.524	142.037
807.652	144.400
807.780	163.088
807.908	142.175
808.037	151.450
808.165	148.213
808.293	143.025
808.421	152.150
808.549	139.762
808.677	139.012
808.805	154.762
808.933	142.225
809.062	141.512
809.190	164.613
809.318	142.687
809.446	143.238
809.574	150.762
809.702	143.838
809.830	142.937
809.958	146.562
810.087	139.900
810.215	144.900
810.343	151.900
810.471	146.988
810.599	138.200
810.727	145.325
810.855	134.863
810.983	144.175
811.112	147.863
811.240	138.838
811.368	143.000
811.496	147.875
811.624	142.525
811.752	135.550
811.880	135.225
812.008	134.912
812.137	140.912
812.265	135.787
812.393	142.425
812.521	141.825
812.649	139.975
812.777	141.200
812.905	147.863
813.033	133.812
813.162	137.037
813.290	131.338
813.418	146.800
813.546	135.825
813.674	135.988
813.802	140.250
813.930	132.863
814.058	131.475
814.187	136.988
814.315	138.088
814.443	135.425
814.571	132.750
814.699	143.162
814.827	137.512
814.955	135.137
815.083	136.950
815.212	137.500
815.340	135.125
815.468	132.525
815.596	136.412
815.724	134.762
815.852	137.750
815.980	131.050
816.108	133.650
816.237	131.113
816.365	138.175
816.493	140.100
816.621	130.075
816.749	133.412
816.877	132.488
817.005	136.550
817.133	130.800
817.262	130.375
817.390	141.637
817.518	130.650
817.646	134.250
817.774	131.925
817.902	137.375
818.030	129.075
818.158	134.725
818.287	138.350
818.415	129.925
818.543	128.950
818.671	133.088
818.799	132.050
818.927	138.425
819.055	128.325
819.183	129.875
819.312	132.525
819.440	131.662
819.568	128.200
819.696	136.350
819.824	134.150
819.952	125.700
820.080	126.675
820.208	129.950
820.337	127.812
820.465	139.037
820.593	129.287
820.721	128.500
820.849	128.412
820.977	124.600
821.105	131.925
821.233	124.287
821.362	137.613
821.490	127.287
821.618	126.338
821.746	127.175
821.874	125.875
822.002	130.075
822.130	126.412
822.258	126.875
822.387	128.437
822.515	124.937
822.643	127.338
822.771	126.750
822.899	126.125
823.027	133.825
823.155	122.225
823.283	127.175
823.412	128.787
823.540	125.900
823.668	143.262
823.796	121.425
823.924	130.525
824.052	131.025
824.180	125.412
824.308	128.925
824.437	126.862
824.565	122.250
824.693	126.737
824.821	125.662
824.949	128.213
825.077	126.400
825.205	129.425
825.333	126.088
825.462	130.562
825.590	122.325
825.718	129.675
825.846	126.912
825.974	127.925
826.102	125.275
826.230	123.000
826.358	126.750
826.487	121.850
826.615	133.662
826.743	122.450
826.871	126.550
826.999	130.412
827.127	124.787
827.255	122.125
827.383	120.013
827.512	131.100
827.640	125.487
827.768	120.750
827.896	123.375
828.024	122.250
828.152	120.800
828.280	122.787
828.408	121.625
828.537	119.600
828.665	122.750
828.793	122.412
828.921	122.338
829.049	122.888
829.177	121.312
829.305	117.838
829.433	119.638
829.562	121.225
829.690	117.575
829.818	124.525
829.946	123.062
830.074	118.187
830.202	123.588
830.330	124.713
830.458	129.375
830.587	117.187
830.715	118.100
830.843	118.975
830.971	120.000
831.099	121.862
831.227	115.375
831.355	120.187
831.483	119.213
831.612	123.275
831.740	122.050
831.868	133.238
831.996	117.838
832.124	123.963
832.252	114.737
832.380	120.638
832.508	129.838
832.637	121.463
832.765	121.037
832.893	124.100
833.021	118.150
833.149	118.013
833.277	117.937
833.405	117.250
833.533	115.162
833.662	118.312
833.790	119.437
833.918	121.513
834.046	123.675
834.174	121.537
834.302	116.237
834.430	114.987
834.558	117.213
834.687	117.700
834.815	119.237
834.943	116.838
835.071	115.013
835.199	117.725
835.327	121.350
835.455	109.875
835.583	118.888
835.712	116.200
835.840	119.900
835.968	116.987
836.096	119.787
836.224	121.713
836.352	117.662
836.480	121.125
836.608	123.088
836.737	114.162
836.865	115.237
836.993	116.750
837.121	114.737
837.249	116.588
837.377	119.600
837.505	116.987
837.633	116.463
837.762	115.800
837.890	121.775
838.018	121.200
838.146	116.225
838.274	117.662
838.402	119.375
838.530	114.600
838.658	112.650
838.787	115.862
838.915	116.588
839.043	115.013
839.171	121.013
839.299	117.550
839.427	117.750
839.555	123.900
839.683	115.925
839.812	114.450
839.940	116.050
840.068	113.850
840.196	113.763
840.324	119.200
840.452	122.275
840.580	121.925
840.708	118.675
840.837	122.037
840.965	117.138
841.093	122.187
841.221	115.400
841.349	114.763
841.477	119.100
841.605	120.975
841.733	113.375
841.862	119.687
841.990	115.175
842.118	115.013
842.246	109.862
842.374	113.375
842.502	115.350
842.630	117.575
842.758	119.812
842.887	114.013
843.015	113.787
843.143	122.513
843.271	118.350
843.399	121.000
843.527	114.862
843.655	111.725
843.783	115.375
843.912	110.875
844.040	124.487
844.168	120.775
844.296	119.612
844.424	113.100
844.552	119.350
844.680	119.150
844.808	125.525
844.937	115.125
845.065	114.025
845.193	115.888
845.321	114.162
845.449	112.237
845.577	115.412
845.705	117.888
845.833	117.362
845.962	117.963
846.090	111.862
846.218	111.250
846.346	115.450
846.474	114.675
846.602	112.037
846.730	111.575
846.858	118.662
846.987	114.275
847.115	111.200
847.243	113.312
847.371	115.713
847.499	113.125
847.627	108.150
847.755	113.200
847.883	115.737
848.012	113.825
848.140	114.062
848.268	112.937
848.396	111.537
848.524	110.013
848.652	111.963
848.780	109.850
848.908	116.650
849.037	112.500
849.165	114.713
849.293	113.713
849.421	119.888
849.549	114.550
849.677	112.675
849.805	117.812
849.933	118.875
850.062	111.737
850.190	112.550
850.318	112.812
850.446	112.388
850.574	111.100
850.702	112.825
850.830	117.025
850.958	118.175
851.087	117.237
851.215	119.138
851.343	112.500
851.471	112.263
851.599	113.437
851.727	111.175
851.855	110.412
851.983	118.850
852.112	114.925
852.240	116.300
852.368	112.138
852.496	108.875
852.624	107.875
852.752	108.275
852.880	109.937
853.008	115.138
853.137	119.075
853.265	114.612
853.393	116.763
853.521	119.388
853.649	120.263
853.777	109.987
853.905	112.275
854.033	113.088
854.162	114.525
854.290	112.263
854.418	106.625
854.546	111.575
854.674	113.013
854.802	114.162
854.930	112.388
855.058	107.100
855.187	106.625
855.315	106.325
855.443	109.588
855.571	109.037
855.699	109.750
855.827	111.650
855.955	109.937
856.083	113.763
856.212	112.088
856.340	109.963
856.468	118.350
856.596	116.300
856.724	113.963
856.852	110.437
856.980	110.963
857.108	114.200
857.237	112.850
857.365	111.575
857.493	110.838
857.621	108.550
857.749	112.487
857.877	117.263
858.005	116.437
858.133	111.350
858.262	109.838
858.390	108.675
858.518	108.075
858.646	110.412
858.774	110.100
858.902	109.787
859.030	110.138
859.158	110.287
859.287	113.575
859.415	114.600
859.543	108.662
859.671	112.787
859.799	113.338
859.927	111.725
860.055	111.950
860.183	110.138
860.312	109.912
860.440	110.250
860.568	113.675
860.696	111.100
860.824	123.075
860.952	107.662
861.080	112.312
861.208	111.013
861.337	111.987
861.465	114.600
861.593	116.675
861.721	110.287
861.849	110.963
861.977	109.250
862.105	109.050
862.233	107.763
862.362	113.687
862.490	111.338
862.618	109.812
862.746	109.775
862.874	109.263
863.002	112.487
863.130	114.612
863.258	112.325
863.387	115.287
863.515	112.450
863.643	107.050
863.771	109.287
863.899	111.838
864.027	109.650
864.155	110.500
864.283	108.112
864.412	108.312
864.540	108.763
864.668	107.112
864.796	108.725
864.924	108.925
865.052	109.312
865.180	111.325
865.308	106.412
865.437	109.000
865.565	110.250
865.693	108.575
865.821	110.138
865.949	110.025
866.077	111.400
866.205	108.537
866.333	110.925
866.462	111.075
866.590	110.650
866.718	114.062
866.846	109.875
866.974	111.825
867.102	112.463
867.230	108.100
867.358	109.763
867.487	110.875
867.615	106.850
867.743	108.638
867.871	111.862
867.999	110.062
868.127	107.900
868.255	118.275
868.383	115.475
868.512	109.525
868.640	110.687
868.768	106.713
868.896	110.713
869.024	111.963
869.152	110.812
869.280	110.525
869.408	111.725
869.537	107.200
869.665	112.975
869.793	110.150
869.921	112.388
870.049	113.013
870.177	109.062
870.305	121.025
870.433	112.513
870.562	110.287
870.690	109.763
870.818	108.088
870.946	110.000
871.074	109.875
871.202	110.450
871.330	110.225
871.458	108.162
871.587	108.263
871.715	107.237
871.843	110.388
871.971	113.612
872.099	110.888
872.227	112.125
872.355	110.175
872.483	110.125
872.612	110.312
872.740	111.825
872.868	108.150
872.996	110.950
873.124	110.300
873.252	110.787
873.380	110.375
873.508	110.362
873.637	110.638
873.765	113.950
873.893	111.537
874.021	111.388
874.149	109.025
874.277	109.625
874.405	116.388
874.533	112.013
874.662	339.312
874.790	112.000
874.918	117.912
875.046	111.600
875.174	113.350
875.302	110.350
875.430	112.638
875.558	113.825
875.687	114.687
875.815	110.537
875.943	109.963
876.071	113.437
876.199	112.263
876.327	120.750
876.455	111.388
876.583	110.100
876.712	110.588
876.840	110.187
876.968	106.312
877.096	110.275
877.224	107.800
877.352	108.562
877.480	109.362
877.608	110.375
877.737	113.550
877.865	111.725
877.993	112.675
878.121	109.150
878.249	112.675
878.377	109.838
878.505	110.525
878.633	108.775
878.762	106.888
878.890	109.187
879.018	108.463
879.146	109.350
879.274	107.338
879.402	111.112
879.530	108.588
879.658	108.275
879.787	109.575
879.915	110.200
880.043	110.787
880.171	108.375
880.299	108.088
880.427	119.937
880.555	111.987
880.683	112.737
880.812	110.400
880.940	109.800
881.068	110.750
881.196	110.287
881.324	110.675
881.452	109.650
881.580	112.150
881.708	114.213
881.837	109.775
881.965	110.612
882.093	108.513
882.221	106.100
882.349	114.362
882.477	113.850
882.605	111.625
882.733	106.937
882.862	109.088
882.990	107.800
883.118	111.575
883.246	110.850
883.374	110.475
883.502	108.900
883.630	108.838
883.758	112.000
883.887	110.013
884.015	107.600
884.143	109.037
884.271	109.812
884.399	111.425
884.527	109.600
884.655	109.562
884.783	110.912
884.912	110.638
885.040	108.825
885.168	108.187
885.296	107.300
885.424	109.662
885.552	113.975
885.680	110.375
885.808	109.287
885.937	110.575
886.065	110.000
886.193	109.062
886.321	108.963
886.449	109.625
886.577	111.263
886.705	107.725
886.833	109.800
886.962	109.650
887.090	108.287
887.218	108.775
887.346	107.600
887.474	117.575
887.602	113.775
887.730	112.513
887.858	110.687
887.987	111.737
888.115	117.800
888.243	113.925
888.371	111.075
888.499	113.225
888.627	109.412
888.755	107.588
888.883	106.987
889.012	109.100
889.140	108.175
889.268	113.987
889.396	121.125
889.524	110.138
889.652	105.950
889.780	110.187
889.908	107.737
890.037	108.275
890.165	108.750
890.293	111.025
890.421	108.937
890.549	111.112
890.677	115.338
890.805	107.175
890.933	109.937
891.062	111.075
891.190	117.800
891.318	114.713
891.446	112.862
891.574	109.138
891.702	108.713
891.830	112.562
891.958	113.513
892.087	113.825
892.215	108.713
892.343	111.075
892.471	117.412
892.599	110.750
892.727	112.650
892.855	112.000
892.983	113.350
893.112	109.888
893.240	112.963
893.368	113.475
893.496	112.675
893.624	113.463
893.752	112.400
893.880	109.112
894.008	108.750
894.137	110.325
894.265	112.412
894.393	110.800
894.521	114.638
894.649	111.950
894.777	107.463
894.905	110.838
895.033	115.487
895.162	111.900
895.290	107.687
895.418	110.150
895.546	112.725
895.674	107.550
895.802	111.050
895.930	110.612
896.058	107.713
896.187	107.800
896.315	107.450
896.443	109.900
896.571	111.187
896.699	109.162
896.827	107.400
896.955	112.275
897.083	112.588
897.212	112.150
897.340	107.775
897.468	108.325
897.596	110.575
897.724	110.612
897.852	117.888
897.980	112.638
898.108	108.588
898.237	107.638
898.365	107.850
898.493	113.175
898.621	115.425
898.749	112.287
898.877	110.713
899.005	110.850
899.133	108.700
899.262	109.513
899.390	109.525
899.518	107.950
899.646	108.250
899.774	119.975
899.902	122.013
900.030	109.175
900.158	109.787
900.287	113.750
900.415	108.463
900.543	110.650
900.671	114.425
900.799	108.750
900.927	109.037
901.055	107.287
901.183	111.900
901.312	109.838
901.440	116.713
901.568	114.600
901.696	112.013
901.824	114.025
901.952	116.925
902.080	115.975
902.208	113.525
902.337	113.338
902.465	111.612
902.593	113.050
902.721	112.763
902.849	109.850
902.977	110.450
903.105	116.175
903.233	120.150
903.362	115.525
903.490	112.425
903.618	107.237
903.746	111.450
903.874	112.125
904.002	111.275
904.130	114.412
904.258	112.025
904.387	111.775
904.515	112.287
904.643	113.562
904.771	111.388
904.899	111.713
905.027	111.175
905.155	109.475
905.283	112.537
905.412	117.500
905.540	112.037
905.668	108.687
905.796	108.463
905.924	109.062
906.052	109.763
906.180	109.800
906.308	112.838
906.437	119.750
906.565	116.213
906.693	113.812
906.821	110.937
906.949	110.500
907.077	109.763
907.205	112.838
907.333	113.025
907.462	112.862
907.590	114.862
907.718	115.812
907.846	109.550
907.974	113.650
908.102	112.412
908.230	112.987
908.358	118.575
908.487	113.662
908.615	113.200
908.743	113.250
908.871	112.700
908.999	113.987
909.127	110.437
909.255	110.862
909.383	111.175
909.512	115.975
909.640	113.025
909.768	117.850
909.896	122.013
910.024	116.350
910.152	115.362
910.280	122.575
910.408	114.550
910.537	121.463
910.665	117.025
910.793	116.775
910.921	117.562
911.049	115.300
911.177	113.025
911.305	118.937
911.433	115.237
911.562	113.825
911.690	112.287
911.818	124.200
911.946	124.675
912.074	116.550
912.202	119.513
912.330	117.062
912.458	114.787
912.587	120.500
912.715	117.412
912.843	115.775
912.971	113.237
913.099	117.700
913.227	118.850
913.355	117.825
913.483	116.612
913.612	115.275
913.740	137.287
913.868	116.388
