sample5_PP_at_750.00nm_cut_at_1008.00Y_01.dat
15.05.2023
11:01:56
cut middle at Y: 1008.00
top cursor: 1048 down cursor: 968 mean of: 80 lines , 2560 datapoints
wavelength(nm)	intensity[arb. units]
585.996	984.638
586.124	955.425
586.252	954.250
586.380	962.925
586.508	970.888
586.637	965.675
586.765	967.538
586.893	973.175
587.021	978.475
587.149	987.350
587.277	977.638
587.405	984.038
587.533	969.112
587.662	989.875
587.790	994.462
587.918	986.862
588.046	988.763
588.174	981.350
588.302	1002.075
588.430	990.862
588.558	991.425
588.687	990.163
588.815	1005.925
588.943	1008.100
589.071	994.900
589.199	1005.450
589.327	996.475
589.455	986.513
589.583	999.350
589.712	1008.000
589.840	998.763
589.968	993.312
590.096	1000.400
590.224	1005.913
590.352	1006.200
590.480	1003.100
590.608	1009.600
590.737	995.800
590.865	1024.275
590.993	1015.175
591.121	1001.400
591.249	1013.875
591.377	1008.437
591.505	1011.562
591.633	1007.962
591.762	1005.825
591.890	1025.650
592.018	1013.425
592.146	1022.937
592.274	1038.500
592.402	1019.638
592.530	1025.325
592.658	1033.900
592.787	1028.787
592.915	1022.525
593.043	1031.525
593.171	1032.463
593.299	1046.362
593.427	1034.463
593.555	1036.900
593.683	1043.513
593.812	1041.888
593.940	1052.713
594.068	1048.875
594.196	1072.037
594.324	1051.862
594.452	1054.812
594.580	1068.213
594.708	1059.425
594.837	1067.125
594.965	1075.187
595.093	1082.400
595.221	1065.713
595.349	1087.775
595.477	1081.400
595.605	1081.050
595.733	1110.162
595.862	1090.687
595.990	1092.550
596.118	1087.787
596.246	1108.562
596.374	1117.812
596.502	1111.937
596.630	1114.950
596.758	1114.500
596.887	1112.987
597.015	1129.000
597.143	1104.812
597.271	1117.687
597.399	1129.062
597.527	1124.888
597.655	1123.338
597.783	1135.312
597.912	1115.463
598.040	1134.750
598.168	1132.987
598.296	1134.287
598.424	1123.100
598.552	1125.963
598.680	1120.287
598.808	1135.037
598.937	1143.312
599.065	1135.638
599.193	1132.475
599.321	1124.763
599.449	1142.737
599.577	1133.225
599.705	1136.088
599.833	1137.187
599.962	1127.037
600.090	1146.825
600.218	1129.537
600.346	1146.987
600.474	1145.487
600.602	1148.487
600.730	1138.025
600.858	1155.362
600.987	1139.937
601.115	1153.362
601.243	1146.187
601.371	1154.562
601.499	1149.088
601.627	1151.600
601.755	1162.888
601.883	1158.250
602.012	1177.513
602.140	1166.687
602.268	1175.800
602.396	1174.737
602.524	1183.187
602.652	1187.862
602.780	1176.187
602.908	1201.862
603.037	1195.875
603.165	1194.362
603.293	1213.925
603.421	1216.412
603.549	1199.838
603.677	1234.537
603.805	1216.775
603.933	1229.263
604.062	1229.325
604.190	1238.562
604.318	1222.737
604.446	1247.338
604.574	1245.412
604.702	1250.950
604.830	1263.600
604.958	1254.000
605.087	1280.287
605.215	1266.325
605.343	1276.900
605.471	1271.750
605.599	1283.150
605.727	1272.338
605.855	1288.100
605.983	1285.987
606.112	1306.162
606.240	1298.800
606.368	1295.475
606.496	1304.875
606.624	1295.850
606.752	1306.200
606.880	1308.875
607.008	1317.812
607.137	1329.862
607.265	1320.975
607.393	1348.687
607.521	1338.125
607.649	1342.200
607.777	1324.162
607.905	1334.662
608.033	1333.775
608.162	1336.975
608.290	1337.300
608.418	1340.687
608.546	1357.125
608.674	1358.650
608.802	1343.950
608.930	1359.437
609.058	1356.287
609.187	1354.925
609.315	1353.125
609.443	1352.888
609.571	1351.075
609.699	1357.850
609.827	1356.737
609.955	1359.050
610.083	1365.125
610.212	1362.175
610.340	1372.175
610.468	1373.838
610.596	1383.963
610.724	1373.000
610.852	1374.225
610.980	1364.275
611.108	1369.263
611.237	1373.487
611.365	1383.662
611.493	1380.625
611.621	1397.400
611.749	1387.050
611.877	1392.525
612.005	1389.987
612.133	1408.800
612.262	1405.525
612.390	1405.862
612.518	1411.825
612.646	1410.912
612.774	1423.200
612.902	1422.125
613.030	1423.675
613.158	1426.537
613.287	1466.650
613.415	1441.362
613.543	1443.912
613.671	1438.750
613.799	1465.138
613.927	1442.750
614.055	1455.937
614.183	1468.325
614.312	1467.175
614.440	1464.388
614.568	1462.200
614.696	1481.062
614.824	1474.963
614.952	1480.362
615.080	1508.550
615.208	1500.362
615.337	1512.650
615.465	1509.175
615.593	1515.800
615.721	1539.425
615.849	1539.125
615.977	1538.463
616.105	1536.437
616.233	1532.000
616.362	1554.250
616.490	1542.312
616.618	1561.350
616.746	1543.025
616.874	1571.600
617.002	1577.275
617.130	1592.825
617.258	1586.325
617.387	1588.200
617.515	1596.975
617.643	1609.088
617.771	1599.037
617.899	1611.062
618.027	1596.437
618.155	1613.500
618.283	1620.037
618.412	1625.850
618.540	1618.787
618.668	1628.213
618.796	1617.187
618.924	1636.800
619.052	1646.963
619.180	1645.138
619.308	1653.250
619.437	1637.750
619.565	1654.362
619.693	1648.588
619.821	1653.775
619.949	1650.900
620.077	1657.838
620.205	1664.450
620.333	1667.537
620.462	1673.862
620.590	1681.175
620.718	1679.300
620.846	1685.588
620.974	1714.750
621.102	1670.588
621.230	1678.875
621.358	1714.187
621.487	1697.850
621.615	1711.825
621.743	1728.162
621.871	1698.912
621.999	1696.200
622.127	1710.900
622.255	1711.000
622.383	1713.187
622.512	1715.300
622.640	1729.088
622.768	1718.138
622.896	1726.950
623.024	1718.287
623.152	1750.937
623.280	1735.888
623.408	1744.562
623.537	1746.050
623.665	1758.013
623.793	1756.362
623.921	1758.175
624.049	1748.100
624.177	1770.338
624.305	1771.100
624.433	1783.888
624.562	1779.737
624.690	1765.862
624.818	1788.050
624.946	1792.588
625.074	1781.888
625.202	1819.437
625.330	1779.150
625.458	1806.450
625.587	1814.937
625.715	1818.125
625.843	1806.388
625.971	1823.550
626.099	1830.325
626.227	1833.675
626.355	1820.437
626.483	1838.162
626.612	1822.075
626.740	1835.963
626.868	1847.162
626.996	1847.675
627.124	1839.900
627.252	1834.088
627.380	1874.200
627.508	1857.200
627.637	1861.275
627.765	1860.475
627.893	1888.213
628.021	1877.862
628.149	1902.963
628.277	1912.750
628.405	1925.338
628.533	1904.763
628.662	1897.875
628.790	1909.800
628.918	1912.150
629.046	1919.537
629.174	1917.950
629.302	1932.275
629.430	1933.425
629.558	1941.737
629.687	1951.513
629.815	1947.700
629.943	1955.575
630.071	1969.412
630.199	1974.450
630.327	1961.662
630.455	1969.388
630.583	2012.013
630.712	2005.300
630.840	1982.412
630.968	2028.213
631.096	2025.463
631.224	2007.263
631.352	2024.125
631.480	2024.425
631.608	2020.775
631.737	2035.425
631.865	2075.150
631.993	2042.612
632.121	2067.025
632.249	2071.012
632.377	2081.000
632.505	2065.312
632.633	2075.225
632.762	2096.887
632.890	2096.312
633.018	2085.925
633.146	2105.937
633.274	2108.213
633.402	2085.125
633.530	2117.012
633.658	2119.150
633.787	2118.925
633.915	2137.625
634.043	2120.963
634.171	2146.850
634.299	2152.187
634.427	2144.988
634.555	2147.738
634.683	2153.787
634.812	2144.925
634.940	2163.387
635.068	2148.925
635.196	2153.225
635.324	2183.375
635.452	2181.687
635.580	2163.025
635.708	2156.300
635.837	2164.200
635.965	2175.125
636.093	2176.775
636.221	2185.100
636.349	2180.937
636.477	2171.525
636.605	2186.975
636.733	2169.500
636.862	2148.700
636.990	2162.350
637.118	2175.613
637.246	2159.875
637.374	2160.588
637.502	2172.312
637.630	2177.387
637.758	2177.925
637.887	2183.912
638.015	2182.175
638.143	2202.075
638.271	2188.937
638.399	2191.700
638.527	2156.738
638.655	2184.275
638.783	2221.300
638.912	2186.162
639.040	2180.363
639.168	2202.450
639.296	2194.625
639.424	2224.875
639.552	2208.700
639.680	2228.500
639.808	2213.725
639.937	2186.262
640.065	2202.975
640.193	2229.750
640.321	2221.850
640.449	2236.150
640.577	2228.687
640.705	2201.863
640.833	2230.100
640.962	2237.537
641.090	2234.450
641.218	2236.738
641.346	2235.287
641.474	2222.588
641.602	2229.937
641.730	2255.262
641.858	2253.550
641.987	2256.700
642.115	2249.988
642.243	2278.300
642.371	2304.012
642.499	2268.312
642.627	2288.287
642.755	2290.088
642.883	2309.088
643.012	2292.625
643.140	2311.575
643.268	2299.375
643.396	2312.500
643.524	2333.800
643.652	2319.275
643.780	2308.137
643.908	2327.963
644.037	2339.037
644.165	2341.588
644.293	2332.387
644.421	2331.463
644.549	2348.137
644.677	2358.613
644.805	2347.850
644.933	2341.338
645.062	2373.000
645.190	2352.988
645.318	2336.425
645.446	2371.588
645.574	2381.300
645.702	2378.287
645.830	2411.525
645.958	2385.113
646.087	2428.187
646.215	2390.412
646.343	2425.562
646.471	2407.700
646.599	2420.437
646.727	2393.250
646.855	2416.963
646.983	2423.625
647.112	2429.350
647.240	2463.512
647.368	2416.450
647.496	2431.025
647.624	2422.825
647.752	2412.700
647.880	2444.088
648.008	2432.963
648.137	2413.738
648.265	2421.488
648.393	2412.625
648.521	2443.937
648.649	2460.125
648.777	2424.562
648.905	2448.450
649.033	2431.875
649.162	2424.850
649.290	2447.363
649.418	2408.687
649.546	2430.900
649.674	2453.950
649.802	2455.662
649.930	2451.075
650.058	2432.075
650.187	2452.863
650.315	2423.150
650.443	2463.750
650.571	2457.600
650.699	2461.425
650.827	2459.713
650.955	2436.588
651.083	2441.550
651.212	2440.687
651.340	2452.187
651.468	2434.512
651.596	2444.350
651.724	2425.713
651.852	2434.375
651.980	2416.625
652.108	2457.375
652.237	2434.662
652.365	2454.937
652.493	2426.588
652.621	2435.975
652.749	2452.500
652.877	2426.588
653.005	2438.812
653.133	2452.863
653.262	2442.637
653.390	2434.100
653.518	2454.425
653.646	2439.162
653.774	2497.650
653.902	2460.062
654.030	2431.012
654.158	2413.713
654.287	2452.162
654.415	2443.500
654.543	2433.400
654.671	2456.900
654.799	2434.963
654.927	2450.775
655.055	2419.875
655.183	2444.637
655.312	2424.088
655.440	2442.412
655.568	2427.425
655.696	2460.600
655.824	2475.262
655.952	2454.312
656.080	2426.662
656.208	2475.450
656.337	2423.725
656.465	2453.775
656.593	2455.775
656.721	2454.475
656.849	2457.137
656.977	2446.887
657.105	2435.950
657.233	2440.300
657.362	2431.350
657.490	2439.100
657.618	2435.075
657.746	2439.488
657.874	2424.687
658.002	2429.475
658.130	2436.350
658.258	2451.613
658.387	2445.963
658.515	2431.738
658.643	2444.988
658.771	2441.050
658.899	2453.363
659.027	2453.988
659.155	2457.500
659.283	2472.338
659.412	2431.037
659.540	2473.437
659.668	2451.037
659.796	2431.863
659.924	2469.613
660.052	2450.675
660.180	2437.625
660.308	2458.937
660.437	2441.387
660.565	2447.875
660.693	2450.162
660.821	2434.550
660.949	2440.137
661.077	2441.262
661.205	2454.575
661.333	2416.950
661.462	2472.125
661.590	2488.662
661.718	2447.975
661.846	2468.375
661.974	2482.963
662.102	2449.600
662.230	2451.275
662.358	2432.425
662.487	2454.662
662.615	2445.437
662.743	2446.287
662.871	2460.637
662.999	2439.650
663.127	2438.000
663.255	2470.213
663.383	2483.088
663.512	2459.350
663.640	2466.300
663.768	2442.675
663.896	2478.363
664.024	2474.037
664.152	2452.637
664.280	2477.512
664.408	2451.250
664.537	2474.088
664.665	2445.887
664.793	2424.738
664.921	2440.812
665.049	2458.475
665.177	2460.650
665.305	2474.650
665.433	2450.675
665.562	2459.213
665.690	2479.775
665.818	2499.787
665.946	2468.387
666.074	2469.800
666.202	2456.363
666.330	2455.675
666.458	2480.687
666.587	2435.988
666.715	2478.000
666.843	2464.213
666.971	2455.963
667.099	2458.963
667.227	2480.463
667.355	2472.062
667.483	2456.575
667.612	2485.375
667.740	2476.275
667.868	2514.525
667.996	2475.287
668.124	2478.000
668.252	2476.775
668.380	2463.650
668.508	2486.238
668.637	2482.925
668.765	2477.825
668.893	2485.150
669.021	2475.650
669.149	2479.937
669.277	2478.187
669.405	2470.238
669.533	2507.700
669.662	2519.463
669.790	2475.437
669.918	2499.850
670.046	2476.187
670.174	2481.088
670.302	2502.075
670.430	2487.425
670.558	2476.338
670.687	2473.450
670.815	2533.137
670.943	2460.613
671.071	2474.963
671.199	2474.550
671.327	2468.825
671.455	2481.262
671.583	2477.562
671.712	2526.900
671.840	2463.975
671.968	2453.637
672.096	2462.150
672.224	2459.488
672.352	2486.062
672.480	2461.475
672.608	2457.850
672.737	2455.363
672.865	2492.625
672.993	2451.838
673.121	2457.012
673.249	2471.863
673.377	2442.512
673.505	2452.838
673.633	2439.287
673.762	2449.025
673.890	2455.262
674.018	2474.350
674.146	2441.750
674.274	2446.875
674.402	2457.137
674.530	2435.562
674.658	2453.475
674.787	2414.600
674.915	2414.537
675.043	2449.613
675.171	2428.562
675.299	2438.000
675.427	2418.037
675.555	2420.887
675.683	2414.000
675.812	2405.950
675.940	2398.213
676.068	2427.425
676.196	2427.050
676.324	2409.338
676.452	2394.887
676.580	2404.012
676.708	2407.363
676.837	2435.075
676.965	2385.912
677.093	2424.988
677.221	2404.450
677.349	2392.088
677.477	2386.238
677.605	2375.250
677.733	2410.562
677.862	2371.113
677.990	2391.150
678.118	2365.525
678.246	2356.475
678.374	2367.275
678.502	2372.175
678.630	2350.463
678.758	2368.125
678.887	2369.488
679.015	2384.838
679.143	2353.662
679.271	2368.338
679.399	2374.562
679.527	2349.912
679.655	2339.550
679.783	2348.537
679.912	2357.988
680.040	2355.262
680.168	2346.512
680.296	2345.825
680.424	2365.062
680.552	2334.600
680.680	2349.537
680.808	2331.338
680.937	2350.225
681.065	2373.588
681.193	2349.875
681.321	2363.375
681.449	2350.425
681.577	2351.500
681.705	2335.050
681.833	2327.463
681.962	2331.000
682.090	2346.012
682.218	2337.662
682.346	2326.738
682.474	2334.775
682.602	2339.250
682.730	2345.600
682.858	2323.875
682.987	2350.562
683.115	2323.562
683.243	2332.137
683.371	2349.675
683.499	2322.787
683.627	2353.700
683.755	2321.925
683.883	2330.125
684.012	2325.325
684.140	2325.113
684.268	2328.300
684.396	2342.738
684.524	2322.600
684.652	2349.275
684.780	2355.113
684.908	2334.050
685.037	2334.437
685.165	2354.738
685.293	2333.850
685.421	2335.162
685.549	2341.975
685.677	2341.812
685.805	2331.600
685.933	2340.075
686.062	2318.875
686.190	2341.200
686.318	2350.950
686.446	2341.100
686.574	2328.275
686.702	2355.012
686.830	2349.588
686.958	2341.988
687.087	2341.700
687.215	2339.738
687.343	2329.375
687.471	2348.750
687.599	2328.675
687.727	2343.150
687.855	2335.975
687.983	2364.100
688.112	2352.200
688.240	2325.450
688.368	2356.537
688.496	2345.900
688.624	2349.900
688.752	2348.338
688.880	2349.275
689.008	2347.750
689.137	2344.963
689.265	2347.887
689.393	2325.963
689.521	2341.325
689.649	2343.100
689.777	2356.088
689.905	2342.437
690.033	2353.887
690.162	2332.150
690.290	2327.525
690.418	2321.588
690.546	2351.850
690.674	2357.025
690.802	2325.687
690.930	2355.863
691.058	2340.075
691.187	2309.588
691.315	2352.850
691.443	2351.150
691.571	2311.762
691.699	2308.750
691.827	2322.512
691.955	2311.550
692.083	2307.062
692.212	2310.412
692.340	2335.200
692.468	2319.363
692.596	2312.125
692.724	2327.262
692.852	2296.988
692.980	2324.100
693.108	2312.825
693.237	2319.000
693.365	2311.150
693.493	2309.037
693.621	2291.600
693.749	2307.100
693.877	2278.950
694.005	2296.325
694.133	2310.325
694.262	2292.088
694.390	2276.662
694.518	2250.963
694.646	2279.150
694.774	2279.937
694.902	2278.412
695.030	2326.887
695.158	2261.213
695.287	2288.412
695.415	2260.512
695.543	2253.637
695.671	2284.350
695.799	2233.350
695.927	2257.637
696.055	2245.363
696.183	2281.950
696.312	2257.037
696.440	2254.637
696.568	2234.550
696.696	2248.863
696.824	2245.088
696.952	2237.488
697.080	2236.925
697.208	2257.600
697.337	2231.613
697.465	2240.338
697.593	2226.325
697.721	2218.937
697.849	2231.025
697.977	2247.437
698.105	2250.125
698.233	2239.887
698.362	2226.350
698.490	2217.062
698.618	2228.350
698.746	2219.988
698.874	2233.937
699.002	2239.075
699.130	2223.300
699.258	2228.437
699.387	2205.500
699.515	2214.550
699.643	2243.450
699.771	2223.437
699.899	2205.463
700.027	2215.500
700.155	2215.575
700.283	2230.812
700.412	2188.575
700.540	2218.925
700.668	2197.037
700.796	2204.950
700.924	2173.400
701.052	2184.213
701.180	2187.713
701.308	2205.450
701.437	2166.525
701.565	2183.725
701.693	2184.800
701.821	2194.900
701.949	2204.562
702.077	2158.975
702.205	2180.550
702.333	2177.887
702.462	2192.687
702.590	2177.000
702.718	2187.600
702.846	2166.225
702.974	2185.250
703.102	2174.937
703.230	2164.475
703.358	2149.412
703.487	2155.575
703.615	2161.838
703.743	2135.300
703.871	2155.550
703.999	2147.363
704.127	2140.588
704.255	2140.238
704.383	2158.500
704.512	2134.037
704.640	2149.037
704.768	2115.187
704.896	2134.325
705.024	2131.812
705.152	2118.175
705.280	2126.588
705.408	2118.250
705.537	2133.675
705.665	2096.025
705.793	2119.312
705.921	2112.375
706.049	2128.425
706.177	2118.050
706.305	2100.412
706.433	2099.475
706.562	2109.363
706.690	2097.100
706.818	2091.488
706.946	2091.500
707.074	2087.187
707.202	2066.762
707.330	2076.537
707.458	2084.625
707.587	2068.787
707.715	2096.150
707.843	2072.213
707.971	2090.838
708.099	2078.588
708.227	2050.463
708.355	2064.650
708.483	2073.213
708.612	2073.825
708.740	2061.150
708.868	2041.700
708.996	2066.738
709.124	2057.787
709.252	2053.400
709.380	2045.475
709.508	2027.437
709.637	2040.263
709.765	2045.450
709.893	2045.000
710.021	2035.862
710.149	2039.750
710.277	2051.900
710.405	2041.400
710.533	2033.862
710.662	2008.612
710.790	2038.287
710.918	2030.638
711.046	2024.275
711.174	2030.662
711.302	2011.150
711.430	2012.638
711.558	2023.675
711.687	2012.187
711.815	2015.937
711.943	2018.787
712.071	2025.213
712.199	2016.263
712.327	2004.750
712.455	2015.950
712.583	2004.612
712.712	2024.600
712.840	2021.475
712.968	1995.187
713.096	1989.013
713.224	2016.150
713.352	1995.662
713.480	1976.025
713.608	1997.125
713.737	1985.838
713.865	1989.687
713.993	1986.138
714.121	1978.925
714.249	1986.437
714.377	1951.900
714.505	1988.300
714.633	1976.250
714.762	1965.125
714.890	1981.213
715.018	1962.750
715.146	1959.850
715.274	1958.062
715.402	1958.450
715.530	1967.900
715.658	1955.850
715.787	1970.050
715.915	1968.513
716.043	1940.275
716.171	1967.900
716.299	1986.375
716.427	1955.175
716.555	1941.213
716.683	1940.875
716.812	1953.475
716.940	1936.950
717.068	1912.312
717.196	1939.350
717.324	1942.412
717.452	1951.987
717.580	1918.838
717.708	1933.000
717.837	1945.625
717.965	1922.138
718.093	1923.625
718.221	1900.150
718.349	1926.937
718.477	1910.650
718.605	1899.037
718.733	1902.838
718.862	1896.787
718.990	1891.175
719.118	1911.975
719.246	1899.662
719.374	1898.800
719.502	1906.775
719.630	1902.138
719.758	1887.775
719.887	1881.300
720.015	1892.075
720.143	1879.562
720.271	1880.025
720.399	1874.375
720.527	1870.000
720.655	1866.687
720.783	1862.062
720.912	1860.412
721.040	1871.075
721.168	1851.650
721.296	1850.838
721.424	1861.838
721.552	1862.550
721.680	1837.025
721.808	1843.812
721.937	1853.100
722.065	1832.000
722.193	1809.187
722.321	1834.487
722.449	1833.900
722.577	1812.775
722.705	1812.138
722.833	1817.375
722.962	1812.588
723.090	1804.525
723.218	1800.400
723.346	1797.987
723.474	1785.125
723.602	1800.875
723.730	1786.937
723.858	1796.713
723.987	1795.175
724.115	1763.800
724.243	1782.350
724.371	1794.237
724.499	1775.025
724.627	1784.075
724.755	1756.812
724.883	1783.050
725.012	1754.125
725.140	1745.763
725.268	1748.513
725.396	1754.487
725.524	1728.575
725.652	1739.237
725.780	1725.537
725.908	1717.950
726.037	1735.825
726.165	1720.463
726.293	1706.638
726.421	1699.050
726.549	1705.338
726.677	1700.412
726.805	1701.350
726.933	1701.000
727.062	1679.425
727.190	1685.737
727.318	1697.875
727.446	1690.175
727.574	1698.200
727.702	1677.263
727.830	1657.112
727.958	1660.325
728.087	1671.000
728.215	1646.963
728.343	1646.250
728.471	1669.662
728.599	1644.263
728.727	1640.850
728.855	1655.388
728.983	1620.650
729.112	1624.850
729.240	1641.287
729.368	1625.950
729.496	1616.875
729.624	1621.062
729.752	1609.763
729.880	1610.312
730.008	1598.975
730.137	1616.463
730.265	1610.150
730.393	1599.187
730.521	1590.975
730.649	1584.562
730.777	1579.975
730.905	1579.725
731.033	1571.037
731.162	1564.888
731.290	1589.463
731.418	1571.537
731.546	1582.562
731.674	1553.588
731.802	1564.800
731.930	1559.950
732.058	1550.625
732.187	1563.088
732.315	1528.650
732.443	1537.750
732.571	1525.287
732.699	1535.825
732.827	1528.300
732.955	1518.400
733.083	1525.125
733.212	1507.425
733.340	1506.888
733.468	1509.588
733.596	1507.375
733.724	1498.687
733.852	1507.350
733.980	1501.412
734.108	1505.100
734.237	1507.537
734.365	1468.937
734.493	1485.612
734.621	1470.388
734.749	1493.888
734.877	1487.650
735.005	1481.175
735.133	1484.075
735.262	1483.487
735.390	1456.088
735.518	1474.513
735.646	1462.050
735.774	1463.162
735.902	1465.000
736.030	1437.525
736.158	1449.713
736.287	1449.888
736.415	1446.425
736.543	1432.862
736.671	1429.388
736.799	1437.112
736.927	1449.112
737.055	1429.225
737.183	1420.062
737.312	1420.400
737.440	1430.925
737.568	1431.200
737.696	1415.062
737.824	1416.237
737.952	1417.525
738.080	1405.237
738.208	1407.775
738.337	1387.275
738.465	1417.562
738.593	1388.638
738.721	1382.412
738.849	1380.600
738.977	1385.287
739.105	1385.650
739.233	1378.187
739.362	1393.250
739.490	1363.437
739.618	1356.175
739.746	1357.862
739.874	1375.463
740.002	1370.425
740.130	1342.275
740.258	1356.112
740.387	1355.200
740.515	1335.700
740.643	1325.525
740.771	1347.937
740.899	1325.975
741.027	1324.425
741.155	1348.312
741.283	1310.700
741.412	1317.888
741.540	1320.312
741.668	1294.088
741.796	1293.500
741.924	1318.312
742.052	1307.125
742.180	1288.763
742.308	1284.912
742.437	1287.200
742.565	1278.500
742.693	1289.138
742.821	1264.325
742.949	1281.725
743.077	1281.338
743.205	1267.375
743.333	1266.537
743.462	1260.437
743.590	1247.213
743.718	1239.987
743.846	1253.175
743.974	1233.025
744.102	1234.713
744.230	1227.562
744.358	1219.787
744.487	1237.112
744.615	1210.800
744.743	1220.075
744.871	1206.687
744.999	1208.312
745.127	1191.037
745.255	1179.463
745.383	1195.388
745.512	1190.237
745.640	1177.300
745.768	1175.763
745.896	1171.075
746.024	1171.575
746.152	1154.338
746.280	1168.838
746.408	1166.237
746.537	1150.175
746.665	1159.338
746.793	1143.787
746.921	1143.925
747.049	1136.037
747.177	1133.713
747.305	1123.687
747.433	1117.713
747.562	1106.138
747.690	1099.525
747.818	1097.975
747.946	1108.638
748.074	1121.537
748.202	1104.437
748.330	1090.200
748.458	1091.513
748.587	1073.862
748.715	1070.112
748.843	1076.875
748.971	1064.362
749.099	1061.900
749.227	1058.638
749.355	1054.800
749.483	1053.400
749.612	1045.675
749.740	1032.175
749.868	1039.125
749.996	1032.000
750.124	1032.487
750.252	1025.888
750.380	1022.413
750.508	1014.062
750.637	1008.112
750.765	1007.300
750.893	1003.663
751.021	1005.837
751.149	992.975
751.277	989.163
751.405	989.788
751.533	994.525
751.662	976.187
751.790	982.075
751.918	975.525
752.046	963.562
752.174	961.475
752.302	955.888
752.430	955.587
752.558	945.663
752.687	944.700
752.815	954.925
752.943	929.687
753.071	922.000
753.199	921.638
753.327	923.237
753.455	915.325
753.583	901.962
753.712	910.888
753.840	903.413
753.968	891.275
754.096	893.475
754.224	889.725
754.352	877.437
754.480	876.425
754.608	876.087
754.737	871.913
754.865	874.937
754.993	863.125
755.121	846.775
755.249	867.437
755.377	846.125
755.505	842.763
755.633	862.038
755.762	830.437
755.890	837.187
756.018	835.388
756.146	818.812
756.274	819.600
756.402	816.212
756.530	818.475
756.658	811.138
756.787	797.800
756.915	791.075
757.043	799.788
757.171	789.362
757.299	786.237
757.427	782.638
757.555	776.437
757.683	789.425
757.812	768.800
757.940	764.075
758.068	766.237
758.196	746.525
758.324	749.125
758.452	740.913
758.580	738.312
758.708	749.288
758.837	733.675
758.965	744.888
759.093	727.375
759.221	726.712
759.349	713.300
759.477	723.000
759.605	710.937
759.733	711.187
759.862	712.025
759.990	691.962
760.118	694.163
760.246	688.562
760.374	694.275
760.502	684.725
760.630	682.087
760.758	673.812
760.887	668.337
761.015	668.187
761.143	661.725
761.271	660.638
761.399	657.875
761.527	652.388
761.655	649.562
761.783	646.200
761.912	643.250
762.040	644.388
762.168	631.087
762.296	626.362
762.424	622.712
762.552	622.013
762.680	625.212
762.808	611.250
762.937	614.587
763.065	607.087
763.193	602.000
763.321	588.513
763.449	589.550
763.577	585.350
763.705	592.600
763.833	609.100
763.962	582.937
764.090	572.500
764.218	573.425
764.346	578.487
764.474	562.375
764.602	565.300
764.730	552.450
764.858	555.350
764.987	552.250
765.115	549.212
765.243	558.500
765.371	534.913
765.499	537.962
765.627	529.675
765.755	531.913
765.883	532.687
766.012	527.513
766.140	520.825
766.268	518.413
766.396	513.737
766.524	510.450
766.652	511.875
766.780	505.288
766.908	510.312
767.037	503.587
767.165	506.325
767.293	500.825
767.421	494.038
767.549	490.962
767.677	486.200
767.805	489.325
767.933	486.038
768.062	482.625
768.190	483.225
768.318	479.613
768.446	488.962
768.574	479.587
768.702	476.863
768.830	467.488
768.958	466.750
769.087	472.988
769.215	465.125
769.343	460.137
769.471	455.887
769.599	468.075
769.727	453.600
769.855	458.025
769.983	452.950
770.112	447.163
770.240	447.600
770.368	437.350
770.496	447.738
770.624	436.750
770.752	441.637
770.880	447.325
771.008	436.600
771.137	442.250
771.265	434.050
771.393	432.062
771.521	425.437
771.649	427.500
771.777	422.462
771.905	427.613
772.033	423.762
772.162	420.750
772.290	421.062
772.418	421.125
772.546	410.375
772.674	418.550
772.802	408.425
772.930	410.475
773.058	403.137
773.187	406.238
773.315	406.937
773.443	394.600
773.571	404.150
773.699	395.125
773.827	392.988
773.955	400.137
774.083	405.325
774.212	391.288
774.340	390.087
774.468	393.100
774.596	390.450
774.724	392.062
774.852	380.538
774.980	387.300
775.108	382.775
775.237	372.350
775.365	369.288
775.493	371.113
775.621	375.163
775.749	373.525
775.877	378.025
776.005	368.212
776.133	372.738
776.262	367.800
776.390	362.025
776.518	370.800
776.646	356.800
776.774	357.675
776.902	355.150
777.030	358.600
777.158	357.800
777.287	355.437
777.415	355.400
777.543	349.913
777.671	348.113
777.799	342.562
777.927	353.962
778.055	348.950
778.183	352.512
778.312	337.212
778.440	339.337
778.568	342.337
778.696	340.875
778.824	341.550
778.952	331.687
779.080	336.738
779.208	340.300
779.337	331.512
779.465	334.913
779.593	333.262
779.721	335.450
779.849	329.075
779.977	329.038
780.105	320.500
780.233	323.812
780.362	318.800
780.490	320.275
780.618	320.100
780.746	320.312
780.874	309.425
781.002	313.312
781.130	311.462
781.258	314.488
781.387	309.325
781.515	312.962
781.643	305.437
781.771	310.275
781.899	309.150
782.027	309.288
782.155	302.363
782.283	301.675
782.412	296.375
782.540	304.525
782.668	297.975
782.796	297.212
782.924	293.800
783.052	285.500
783.180	297.550
783.308	286.312
783.437	295.700
783.565	290.950
783.693	291.525
783.821	286.375
783.949	282.650
784.077	287.913
784.205	288.625
784.333	295.875
784.462	278.212
784.590	279.775
784.718	279.500
784.846	274.050
784.974	278.650
785.102	281.762
785.230	278.425
785.358	281.863
785.487	274.087
785.615	276.212
785.743	270.900
785.871	264.225
785.999	268.025
786.127	265.337
786.255	274.650
786.383	271.762
786.512	267.075
786.640	265.087
786.768	269.400
786.896	261.125
787.024	260.137
787.152	256.050
787.280	253.988
787.408	255.750
787.537	256.937
787.665	255.000
787.793	256.913
787.921	254.075
788.049	245.963
788.177	246.775
788.305	250.275
788.433	246.912
788.562	242.300
788.690	240.963
788.818	241.363
788.946	240.675
789.074	239.262
789.202	246.088
789.330	243.287
789.458	238.575
789.587	243.787
789.715	243.725
789.843	241.025
789.971	238.113
790.099	230.312
790.227	236.400
790.355	228.437
790.483	238.637
790.612	234.925
790.740	230.637
790.868	234.525
790.996	226.075
791.124	229.662
791.252	224.062
791.380	229.000
791.508	225.062
791.637	237.100
791.765	215.687
791.893	222.075
792.021	231.925
792.149	218.000
792.277	220.012
792.405	214.125
792.533	228.450
792.662	216.213
792.790	213.750
792.918	217.137
793.046	213.613
793.174	216.988
793.302	212.725
793.430	212.588
793.558	218.425
793.687	207.375
793.815	214.400
793.943	213.025
794.071	204.613
794.199	202.262
794.327	207.213
794.455	227.275
794.583	218.075
794.712	208.812
794.840	202.300
794.968	203.037
795.096	206.300
795.224	200.437
795.352	188.787
795.480	197.475
795.608	194.088
795.737	203.875
795.865	197.250
795.993	193.575
796.121	192.975
796.249	198.500
796.377	194.400
796.505	195.812
796.633	193.950
796.762	185.650
796.890	199.825
797.018	190.412
797.146	189.262
797.274	181.863
797.402	189.238
797.530	188.450
797.658	184.437
797.787	190.950
797.915	183.787
798.043	189.363
798.171	188.900
798.299	181.025
798.427	183.338
798.555	184.287
798.683	176.738
798.812	183.425
798.940	183.850
799.068	178.137
799.196	181.963
799.324	178.738
799.452	186.262
799.580	178.950
799.708	187.950
799.837	170.725
799.965	173.613
800.093	174.887
800.221	176.550
800.349	179.812
800.477	174.937
800.605	173.213
800.733	177.825
800.862	172.113
800.990	185.738
801.118	172.925
801.246	169.825
801.374	170.850
801.502	174.588
801.630	164.175
801.758	168.338
801.887	172.262
802.015	167.012
802.143	165.625
802.271	168.200
802.399	171.100
802.527	169.437
802.655	169.650
802.783	171.488
802.912	166.037
803.040	163.150
803.168	161.175
803.296	157.588
803.424	161.088
803.552	160.963
803.680	159.113
803.808	161.625
803.937	159.950
804.065	158.275
804.193	158.225
804.321	168.150
804.449	158.537
804.577	156.963
804.705	163.250
804.833	161.350
804.962	157.463
805.090	157.037
805.218	165.725
805.346	156.113
805.474	151.062
805.602	167.137
805.730	154.625
805.858	153.425
805.987	165.825
806.115	157.600
806.243	157.662
806.371	151.675
806.499	155.338
806.627	148.637
806.755	157.200
806.883	148.950
807.012	152.713
807.140	155.187
807.268	150.312
807.396	153.937
807.524	146.000
807.652	150.650
807.780	163.762
807.908	148.562
808.037	157.000
808.165	150.863
808.293	150.700
808.421	161.162
808.549	143.475
808.677	144.775
808.805	158.175
808.933	146.700
809.062	148.375
809.190	162.387
809.318	146.500
809.446	144.088
809.574	153.662
809.702	145.650
809.830	145.925
809.958	149.088
810.087	146.275
810.215	151.025
810.343	155.363
810.471	147.787
810.599	139.062
810.727	144.525
810.855	136.613
810.983	142.825
811.112	144.637
811.240	140.262
811.368	145.512
811.496	150.825
811.624	143.475
811.752	138.687
811.880	136.937
812.008	133.437
812.137	139.925
812.265	137.687
812.393	142.562
812.521	141.562
812.649	141.025
812.777	139.875
812.905	144.238
813.033	135.275
813.162	136.387
813.290	133.750
813.418	147.000
813.546	137.088
813.674	139.250
813.802	141.950
813.930	136.750
814.058	128.425
814.187	139.750
814.315	138.937
814.443	137.187
814.571	132.325
814.699	142.537
814.827	132.812
814.955	138.300
815.083	136.175
815.212	137.137
815.340	132.088
815.468	129.988
815.596	132.325
815.724	132.863
815.852	140.650
815.980	130.850
816.108	130.262
816.237	128.062
816.365	135.137
816.493	134.150
816.621	131.187
816.749	132.912
816.877	130.062
817.005	138.300
817.133	130.912
817.262	128.387
817.390	139.738
817.518	129.350
817.646	132.950
817.774	125.338
817.902	132.588
818.030	125.888
818.158	131.912
818.287	134.762
818.415	125.400
818.543	128.687
818.671	136.525
818.799	129.250
818.927	134.600
819.055	129.900
819.183	123.725
819.312	124.050
819.440	132.025
819.568	127.850
819.696	138.350
819.824	130.713
819.952	125.263
820.080	125.275
820.208	127.050
820.337	123.412
820.465	130.738
820.593	125.750
820.721	126.850
820.849	127.388
820.977	124.713
821.105	126.213
821.233	118.225
821.362	131.975
821.490	124.562
821.618	122.675
821.746	124.888
821.874	125.075
822.002	123.600
822.130	125.325
822.258	120.300
822.387	120.900
822.515	124.300
822.643	125.487
822.771	124.388
822.899	124.263
823.027	123.500
823.155	120.088
823.283	122.287
823.412	128.150
823.540	121.975
823.668	141.912
823.796	119.725
823.924	129.850
824.052	127.862
824.180	120.237
824.308	128.625
824.437	122.287
824.565	117.850
824.693	120.425
824.821	118.888
824.949	119.225
825.077	118.200
825.205	124.013
825.333	122.562
825.462	124.200
825.590	116.625
825.718	124.050
825.846	122.513
825.974	122.725
826.102	123.562
826.230	120.025
826.358	121.800
826.487	114.775
826.615	117.525
826.743	119.463
826.871	123.437
826.999	127.312
827.127	123.225
827.255	120.125
827.383	114.325
827.512	123.925
827.640	120.400
827.768	116.750
827.896	115.562
828.024	116.275
828.152	118.862
828.280	115.900
828.408	119.325
828.537	119.575
828.665	115.050
828.793	118.075
828.921	117.388
829.049	116.687
829.177	115.537
829.305	112.838
829.433	113.700
829.562	115.138
829.690	114.138
829.818	119.425
829.946	120.725
830.074	112.037
830.202	123.687
830.330	118.675
830.458	126.400
830.587	113.612
830.715	113.437
830.843	114.275
830.971	114.700
831.099	118.075
831.227	111.187
831.355	113.775
831.483	114.987
831.612	116.450
831.740	117.325
831.868	127.600
831.996	111.763
832.124	113.475
832.252	109.225
832.380	110.850
832.508	114.950
832.637	116.800
832.765	116.825
832.893	122.562
833.021	119.037
833.149	114.412
833.277	113.025
833.405	109.950
833.533	114.375
833.662	113.412
833.790	114.138
833.918	115.350
834.046	115.537
834.174	119.325
834.302	112.862
834.430	112.013
834.558	121.475
834.687	113.200
834.815	111.062
834.943	112.300
835.071	112.775
835.199	115.037
835.327	117.463
835.455	108.575
835.583	111.475
835.712	109.700
835.840	115.812
835.968	111.638
836.096	112.875
836.224	118.062
836.352	111.800
836.480	114.250
836.608	117.487
836.737	109.125
836.865	110.638
836.993	112.425
837.121	110.662
837.249	111.787
837.377	114.662
837.505	114.187
837.633	110.737
837.762	106.975
837.890	111.375
838.018	116.787
838.146	111.713
838.274	115.612
838.402	116.500
838.530	109.487
838.658	107.825
838.787	112.500
838.915	116.287
839.043	112.213
839.171	117.437
839.299	112.825
839.427	109.725
839.555	122.125
839.683	114.662
839.812	113.225
839.940	108.013
840.068	108.300
840.196	110.487
840.324	117.862
840.452	116.550
840.580	113.675
840.708	112.300
840.837	112.412
840.965	114.213
841.093	112.925
841.221	113.925
841.349	113.950
841.477	111.925
841.605	110.675
841.733	110.525
841.862	113.112
841.990	109.550
842.118	107.138
842.246	106.812
842.374	106.200
842.502	108.638
842.630	112.888
842.758	110.975
842.887	110.812
843.015	110.425
843.143	115.825
843.271	111.500
843.399	114.062
843.527	109.912
843.655	108.100
843.783	109.075
843.912	107.125
844.040	112.763
844.168	119.187
844.296	115.925
844.424	111.162
844.552	114.075
844.680	115.412
844.808	112.550
844.937	108.650
845.065	105.550
845.193	111.675
845.321	108.862
845.449	109.937
845.577	108.075
845.705	110.025
845.833	107.662
845.962	107.937
846.090	107.900
846.218	109.037
846.346	111.175
846.474	111.062
846.602	108.650
846.730	108.900
846.858	105.050
846.987	106.600
847.115	108.638
847.243	113.200
847.371	112.037
847.499	110.975
847.627	108.200
847.755	106.812
847.883	107.562
848.012	112.088
848.140	107.912
848.268	110.162
848.396	111.750
848.524	107.812
848.652	106.713
848.780	106.275
848.908	110.550
849.037	108.112
849.165	108.500
849.293	109.850
849.421	112.675
849.549	108.225
849.677	109.200
849.805	111.425
849.933	113.737
850.062	110.237
850.190	109.437
850.318	108.713
850.446	107.675
850.574	106.775
850.702	108.112
850.830	108.287
850.958	106.862
851.087	110.000
851.215	118.513
851.343	109.725
851.471	110.312
851.599	109.600
851.727	112.463
851.855	108.287
851.983	108.987
852.112	109.987
852.240	110.225
852.368	108.125
852.496	106.025
852.624	106.112
852.752	106.925
852.880	106.700
853.008	112.600
853.137	111.912
853.265	106.700
853.393	111.112
853.521	114.875
853.649	113.687
853.777	109.250
853.905	111.100
854.033	109.187
854.162	110.300
854.290	108.287
854.418	105.150
854.546	107.075
854.674	109.088
854.802	107.850
854.930	108.000
855.058	104.800
855.187	105.975
855.315	105.125
855.443	105.287
855.571	105.700
855.699	109.138
855.827	108.500
855.955	107.088
856.083	110.500
856.212	110.625
856.340	107.200
856.468	114.437
856.596	110.650
856.724	109.213
856.852	108.838
856.980	108.350
857.108	108.875
857.237	112.412
857.365	106.812
857.493	105.237
857.621	106.700
857.749	105.650
857.877	104.750
858.005	110.612
858.133	109.088
858.262	107.388
858.390	103.725
858.518	105.450
858.646	108.213
858.774	107.675
858.902	107.912
859.030	106.187
859.158	104.300
859.287	109.088
859.415	111.350
859.543	108.162
859.671	106.975
859.799	110.750
859.927	107.912
860.055	107.900
860.183	105.388
860.312	106.612
860.440	107.713
860.568	109.763
860.696	109.950
860.824	119.463
860.952	108.200
861.080	106.250
861.208	108.562
861.337	108.200
861.465	109.950
861.593	114.263
861.721	106.000
861.849	105.950
861.977	108.700
862.105	108.925
862.233	107.025
862.362	108.700
862.490	104.737
862.618	112.650
862.746	109.037
862.874	108.025
863.002	111.138
863.130	113.463
863.258	107.513
863.387	109.088
863.515	106.687
863.643	108.450
863.771	107.350
863.899	105.513
864.027	105.625
864.155	106.513
864.283	107.437
864.412	105.800
864.540	106.575
864.668	105.362
864.796	107.237
864.924	106.075
865.052	106.050
865.180	104.975
865.308	102.537
865.437	108.550
865.565	106.263
865.693	113.550
865.821	109.875
865.949	106.162
866.077	104.737
866.205	105.025
866.333	105.275
866.462	107.537
866.590	106.812
866.718	108.925
866.846	109.225
866.974	110.500
867.102	111.737
867.230	106.725
867.358	107.550
867.487	109.025
867.615	107.588
867.743	108.825
867.871	110.825
867.999	106.763
868.127	104.950
868.255	117.825
868.383	110.763
868.512	106.388
868.640	109.088
868.768	108.100
868.896	106.662
869.024	110.638
869.152	106.888
869.280	110.263
869.408	109.112
869.537	107.812
869.665	107.050
869.793	107.037
869.921	112.013
870.049	109.187
870.177	107.062
870.305	119.037
870.433	107.225
870.562	106.638
870.690	104.888
870.818	105.013
870.946	105.713
871.074	104.825
871.202	108.213
871.330	105.812
871.458	107.287
871.587	107.513
871.715	106.138
871.843	106.237
871.971	104.775
872.099	105.287
872.227	106.975
872.355	106.713
872.483	108.625
872.612	109.825
872.740	110.062
872.868	104.987
872.996	108.612
873.124	109.125
873.252	109.400
873.380	107.575
873.508	107.325
873.637	106.725
873.765	109.838
873.893	108.925
874.021	108.912
874.149	107.575
874.277	107.662
874.405	113.612
874.533	106.725
874.662	328.887
874.790	108.162
874.918	115.700
875.046	110.850
875.174	107.463
875.302	107.900
875.430	107.800
875.558	107.725
875.687	109.412
875.815	107.325
875.943	107.987
876.071	114.375
876.199	109.362
876.327	111.812
876.455	108.138
876.583	106.850
876.712	108.062
876.840	109.025
876.968	109.975
877.096	107.138
877.224	105.562
877.352	104.750
877.480	104.825
877.608	105.900
877.737	106.775
877.865	104.713
877.993	110.775
878.121	106.625
878.249	107.287
878.377	106.900
878.505	107.888
878.633	106.525
878.762	105.425
878.890	106.875
879.018	109.050
879.146	111.075
879.274	105.537
879.402	107.888
879.530	110.500
879.658	109.838
879.787	109.800
879.915	105.713
880.043	105.412
880.171	105.763
880.299	106.812
880.427	109.350
880.555	109.162
880.683	109.450
880.812	107.662
880.940	110.425
881.068	109.600
881.196	108.537
881.324	107.025
881.452	108.175
881.580	108.900
881.708	110.612
881.837	110.075
881.965	107.463
882.093	105.425
882.221	103.287
882.349	112.475
882.477	110.450
882.605	115.800
882.733	106.812
882.862	106.350
882.990	105.638
883.118	108.213
883.246	107.275
883.374	107.500
883.502	105.062
883.630	105.862
883.758	108.287
883.887	106.237
884.015	107.125
884.143	109.237
884.271	107.150
884.399	105.562
884.527	106.600
884.655	108.737
884.783	107.825
884.912	108.850
885.040	108.112
885.168	107.275
885.296	105.312
885.424	106.050
885.552	110.487
885.680	105.925
885.808	107.975
885.937	111.150
886.065	107.237
886.193	106.875
886.321	106.112
886.449	106.162
886.577	106.037
886.705	105.975
886.833	106.725
886.962	106.300
887.090	105.787
887.218	105.838
887.346	108.537
887.474	115.100
887.602	108.650
887.730	106.412
887.858	107.638
887.987	109.700
888.115	114.075
888.243	111.513
888.371	111.275
888.499	111.675
888.627	108.700
888.755	106.787
888.883	106.362
889.012	106.412
889.140	106.850
889.268	114.400
889.396	109.612
889.524	106.263
889.652	104.912
889.780	107.350
889.908	106.525
890.037	106.062
890.165	106.263
890.293	108.037
890.421	109.062
890.549	110.525
890.677	111.437
890.805	106.700
890.933	106.325
891.062	107.700
891.190	112.400
891.318	112.475
891.446	109.888
891.574	107.200
891.702	105.750
891.830	108.862
891.958	110.912
892.087	109.713
892.215	106.100
892.343	106.162
892.471	107.550
892.599	108.900
892.727	111.412
892.855	109.600
892.983	105.487
893.112	108.025
893.240	109.537
893.368	108.675
893.496	112.500
893.624	111.287
893.752	111.150
893.880	106.713
894.008	108.763
894.137	113.450
894.265	110.075
894.393	112.187
894.521	111.150
894.649	110.037
894.777	104.562
894.905	107.375
895.033	112.275
895.162	111.625
895.290	116.112
895.418	111.150
895.546	110.687
895.674	112.888
895.802	108.463
895.930	107.138
896.058	104.763
896.187	104.862
896.315	108.187
896.443	110.088
896.571	109.513
896.699	110.513
896.827	107.025
896.955	109.775
897.083	109.500
897.212	109.763
897.340	104.850
897.468	107.700
897.596	110.062
897.724	107.700
897.852	113.525
897.980	107.750
898.108	105.287
898.237	106.888
898.365	107.275
898.493	109.237
898.621	111.175
898.749	106.062
898.877	106.425
899.005	105.763
899.133	106.625
899.262	106.612
899.390	106.862
899.518	108.263
899.646	108.900
899.774	115.400
899.902	122.338
900.030	109.150
900.158	104.750
900.287	108.237
900.415	107.888
900.543	107.213
900.671	114.075
900.799	109.525
900.927	110.900
901.055	106.987
901.183	106.662
901.312	106.825
901.440	111.850
901.568	112.412
901.696	110.425
901.824	108.500
901.952	115.912
902.080	112.787
902.208	112.750
902.337	109.362
902.465	111.725
902.593	110.100
902.721	107.312
902.849	112.050
902.977	108.100
903.105	111.900
903.233	113.600
903.362	108.950
903.490	112.175
903.618	106.713
903.746	112.975
903.874	110.963
904.002	109.350
904.130	113.300
904.258	109.250
904.387	106.862
904.515	106.600
904.643	106.850
904.771	106.600
904.899	109.200
905.027	107.825
905.155	106.487
905.283	109.662
905.412	115.225
905.540	109.950
905.668	106.150
905.796	106.763
905.924	109.638
906.052	108.975
906.180	109.750
906.308	108.562
906.437	111.675
906.565	113.275
906.693	108.513
906.821	107.600
906.949	109.237
907.077	110.400
907.205	114.600
907.333	110.000
907.462	109.862
907.590	112.987
907.718	113.287
907.846	109.875
907.974	111.475
908.102	110.575
908.230	111.862
908.358	115.050
908.487	111.775
908.615	111.787
908.743	110.350
908.871	121.312
908.999	110.350
909.127	107.000
909.255	107.050
909.383	108.062
909.512	112.388
909.640	116.237
909.768	112.237
909.896	123.062
910.024	115.400
910.152	114.162
910.280	116.600
910.408	110.388
910.537	112.375
910.665	117.125
910.793	111.362
910.921	117.312
911.049	113.175
911.177	111.963
911.305	117.950
911.433	112.650
911.562	111.312
911.690	111.812
911.818	120.925
911.946	114.013
912.074	110.275
912.202	113.250
912.330	113.737
912.458	112.687
912.587	113.525
912.715	109.525
912.843	114.400
912.971	118.187
913.099	114.213
913.227	115.600
913.355	117.150
913.483	116.000
913.612	113.850
913.740	138.275
913.868	115.650
