sample13_PP_at_750.00nm_cut_at_1008.00Y_01.dat
15.05.2023
12:29:00
cut middle at Y: 1008.00
top cursor: 1048 down cursor: 968 mean of: 80 lines , 2560 datapoints
wavelength(nm)	intensity[arb. units]
585.996	1603.525
586.124	1573.650
586.252	1562.350
586.380	1576.225
586.508	1566.037
586.637	1578.975
586.765	1578.075
586.893	1593.088
587.021	1601.775
587.149	1601.375
587.277	1606.300
587.405	1614.787
587.533	1590.213
587.662	1593.650
587.790	1617.537
587.918	1613.662
588.046	1617.437
588.174	1603.662
588.302	1623.500
588.430	1605.463
588.558	1608.713
588.687	1623.812
588.815	1634.937
588.943	1610.713
589.071	1608.025
589.199	1619.500
589.327	1623.050
589.455	1619.963
589.583	1634.237
589.712	1638.662
589.840	1632.725
589.968	1597.812
590.096	1627.400
590.224	1623.575
590.352	1623.600
590.480	1628.713
590.608	1627.487
590.737	1615.975
590.865	1644.550
590.993	1621.300
591.121	1639.425
591.249	1645.925
591.377	1627.600
591.505	1643.400
591.633	1633.687
591.762	1642.750
591.890	1659.937
592.018	1638.838
592.146	1652.500
592.274	1658.000
592.402	1654.437
592.530	1666.000
592.658	1653.338
592.787	1663.562
592.915	1657.525
593.043	1669.850
593.171	1659.300
593.299	1694.362
593.427	1679.025
593.555	1684.725
593.683	1682.638
593.812	1690.062
593.940	1703.575
594.068	1697.525
594.196	1721.138
594.324	1683.875
594.452	1717.525
594.580	1727.562
594.708	1703.062
594.837	1714.300
594.965	1723.450
595.093	1737.062
595.221	1734.600
595.349	1730.787
595.477	1748.025
595.605	1727.937
595.733	1767.138
595.862	1757.388
595.990	1750.763
596.118	1769.338
596.246	1770.850
596.374	1781.362
596.502	1791.200
596.630	1788.925
596.758	1792.463
596.887	1796.412
597.015	1806.812
597.143	1785.687
597.271	1788.263
597.399	1796.375
597.527	1808.888
597.655	1804.088
597.783	1802.062
597.912	1791.775
598.040	1813.750
598.168	1802.575
598.296	1805.638
598.424	1800.175
598.552	1804.912
598.680	1798.763
598.808	1800.487
598.937	1832.963
599.065	1815.700
599.193	1804.075
599.321	1787.388
599.449	1829.750
599.577	1806.588
599.705	1807.263
599.833	1823.312
599.962	1808.700
600.090	1803.987
600.218	1806.013
600.346	1805.650
600.474	1823.650
600.602	1818.763
600.730	1824.150
600.858	1833.400
600.987	1825.375
601.115	1826.638
601.243	1803.287
601.371	1839.100
601.499	1837.763
601.627	1832.975
601.755	1847.875
601.883	1839.463
602.012	1855.513
602.140	1847.487
602.268	1858.375
602.396	1866.275
602.524	1861.025
602.652	1866.312
602.780	1872.075
602.908	1886.850
603.037	1902.562
603.165	1899.963
603.293	1912.312
603.421	1938.050
603.549	1910.325
603.677	1941.425
603.805	1915.275
603.933	1931.200
604.062	1931.525
604.190	1952.787
604.318	1938.450
604.446	1979.112
604.574	1959.750
604.702	1963.187
604.830	1958.975
604.958	1982.375
605.087	2001.187
605.215	2002.162
605.343	2009.963
605.471	2009.225
605.599	2021.187
605.727	2019.875
605.855	2018.300
605.983	2013.362
606.112	2040.463
606.240	2048.875
606.368	2058.850
606.496	2056.150
606.624	2047.662
606.752	2055.562
606.880	2062.562
607.008	2077.425
607.137	2071.713
607.265	2080.750
607.393	2094.300
607.521	2081.775
607.649	2077.600
607.777	2075.187
607.905	2082.988
608.033	2098.675
608.162	2087.637
608.290	2090.225
608.418	2095.037
608.546	2100.488
608.674	2124.600
608.802	2099.775
608.930	2115.500
609.058	2100.088
609.187	2095.812
609.315	2098.375
609.443	2111.750
609.571	2114.500
609.699	2116.975
609.827	2113.613
609.955	2112.512
610.083	2114.713
610.212	2116.613
610.340	2110.475
610.468	2114.162
610.596	2123.863
610.724	2109.363
610.852	2131.300
610.980	2132.387
611.108	2133.037
611.237	2121.450
611.365	2128.225
611.493	2131.738
611.621	2155.250
611.749	2149.050
611.877	2166.400
612.005	2169.488
612.133	2153.725
612.262	2153.738
612.390	2164.912
612.518	2178.887
612.646	2161.600
612.774	2171.088
612.902	2182.125
613.030	2197.650
613.158	2189.662
613.287	2232.363
613.415	2207.300
613.543	2206.662
613.671	2196.625
613.799	2229.550
613.927	2227.713
614.055	2232.150
614.183	2264.912
614.312	2244.262
614.440	2249.050
614.568	2257.075
614.696	2264.062
614.824	2262.238
614.952	2265.137
615.080	2286.000
615.208	2272.787
615.337	2281.738
615.465	2285.025
615.593	2305.975
615.721	2317.250
615.849	2318.150
615.977	2329.588
616.105	2334.637
616.233	2345.800
616.362	2377.687
616.490	2328.838
616.618	2366.625
616.746	2348.225
616.874	2397.387
617.002	2387.025
617.130	2396.375
617.258	2431.275
617.387	2382.037
617.515	2401.175
617.643	2408.475
617.771	2412.012
617.899	2436.113
618.027	2406.275
618.155	2451.437
618.283	2422.488
618.412	2426.975
618.540	2451.588
618.668	2449.713
618.796	2429.512
618.924	2477.800
619.052	2443.762
619.180	2444.613
619.308	2461.775
619.437	2454.750
619.565	2474.262
619.693	2440.100
619.821	2476.187
619.949	2442.387
620.077	2468.113
620.205	2481.800
620.333	2491.412
620.462	2503.512
620.590	2528.525
620.718	2489.738
620.846	2514.350
620.974	2555.088
621.102	2509.113
621.230	2500.387
621.358	2551.375
621.487	2511.575
621.615	2528.800
621.743	2544.463
621.871	2520.887
621.999	2549.062
622.127	2525.137
622.255	2557.600
622.383	2550.600
622.512	2556.025
622.640	2614.500
622.768	2552.113
622.896	2531.275
623.024	2547.113
623.152	2608.975
623.280	2580.275
623.408	2564.338
623.537	2573.075
623.665	2569.350
623.793	2595.975
623.921	2576.800
624.049	2579.963
624.177	2609.963
624.305	2604.137
624.433	2621.175
624.562	2600.963
624.690	2611.738
624.818	2630.937
624.946	2722.738
625.074	2641.387
625.202	2621.312
625.330	2619.787
625.458	2648.975
625.587	2635.387
625.715	2663.687
625.843	2720.400
625.971	2654.675
626.099	2649.150
626.227	2667.787
626.355	2645.363
626.483	2737.150
626.612	2645.000
626.740	2647.988
626.868	2701.875
626.996	2659.012
627.124	2679.162
627.252	2664.812
627.380	2714.412
627.508	2678.275
627.637	2664.300
627.765	2711.412
627.893	2716.512
628.021	2708.500
628.149	2745.537
628.277	2748.450
628.405	2797.800
628.533	2719.287
628.662	2761.600
628.790	2746.838
628.918	2742.137
629.046	2751.937
629.174	2747.275
629.302	2853.762
629.430	2766.425
629.558	2786.550
629.687	2793.175
629.815	2799.738
629.943	2815.238
630.071	2828.175
630.199	2827.562
630.327	2838.500
630.455	2810.037
630.583	2888.363
630.712	2861.537
630.840	2887.912
630.968	2902.262
631.096	2871.012
631.224	2859.600
631.352	2874.475
631.480	2894.338
631.608	2898.687
631.737	3007.762
631.865	3055.450
631.993	2915.175
632.121	3028.225
632.249	3027.025
632.377	2987.738
632.505	2998.838
632.633	2906.925
632.762	3004.963
632.890	3104.262
633.018	2941.912
633.146	3034.325
633.274	3013.500
633.402	3004.937
633.530	2971.287
633.658	3168.275
633.787	2985.537
633.915	3061.937
634.043	3015.238
634.171	3015.937
634.299	3059.562
634.427	3106.675
634.555	3074.588
634.683	3025.762
634.812	3028.687
634.940	3042.600
635.068	3022.363
635.196	3079.863
635.324	3064.350
635.452	3145.925
635.580	3056.488
635.708	3070.713
635.837	3120.025
635.965	3088.713
636.093	3076.963
636.221	3062.175
636.349	3141.500
636.477	3048.175
636.605	3249.838
636.733	3022.887
636.862	3053.225
636.990	3063.225
637.118	3132.325
637.246	3095.787
637.374	3067.225
637.502	3075.300
637.630	3052.488
637.758	3083.287
637.887	3064.713
638.015	3068.425
638.143	3079.800
638.271	3078.350
638.399	3061.512
638.527	3061.900
638.655	3050.525
638.783	3221.825
638.912	3105.963
639.040	3123.725
639.168	3138.800
639.296	3082.900
639.424	3231.937
639.552	3064.637
639.680	3103.463
639.808	3160.588
639.937	3082.925
640.065	3108.275
640.193	3215.162
640.321	3115.088
640.449	3175.562
640.577	3232.713
640.705	3155.787
640.833	3249.162
640.962	3121.488
641.090	3154.287
641.218	3134.450
641.346	3168.412
641.474	3191.650
641.602	3161.850
641.730	3184.700
641.858	3164.825
641.987	3215.075
642.115	3167.637
642.243	3243.400
642.371	3232.238
642.499	3189.350
642.627	3244.325
642.755	3281.275
642.883	3293.725
643.012	3271.463
643.140	3223.963
643.268	3272.762
643.396	3286.687
643.524	3420.550
643.652	3293.338
643.780	3269.213
643.908	3314.537
644.037	3416.550
644.165	3296.312
644.293	3324.012
644.421	3314.650
644.549	3386.338
644.677	3329.850
644.805	3374.725
644.933	3307.650
645.062	3350.637
645.190	3349.675
645.318	3474.400
645.446	3382.312
645.574	3399.213
645.702	3373.300
645.830	3580.387
645.958	3389.600
646.087	3591.238
646.215	3388.137
646.343	3606.375
646.471	3475.562
646.599	3491.162
646.727	3421.575
646.855	3445.550
646.983	3520.300
647.112	3426.988
647.240	3621.687
647.368	3474.675
647.496	3552.150
647.624	3454.875
647.752	3448.325
647.880	3472.625
648.008	3482.637
648.137	3479.125
648.265	3476.625
648.393	3499.262
648.521	3519.650
648.649	3512.838
648.777	3537.325
648.905	3491.550
649.033	3524.925
649.162	3536.225
649.290	3516.838
649.418	3564.887
649.546	3572.787
649.674	3571.400
649.802	3543.525
649.930	3689.238
650.058	3492.562
650.187	3543.588
650.315	3509.675
650.443	3603.412
650.571	3546.400
650.699	3517.450
650.827	3523.750
650.955	3578.550
651.083	3557.887
651.212	3606.537
651.340	3618.475
651.468	3587.162
651.596	3564.900
651.724	3549.650
651.852	3576.950
651.980	3550.412
652.108	3632.437
652.237	3602.500
652.365	3649.650
652.493	3561.275
652.621	3558.800
652.749	3649.225
652.877	3556.838
653.005	3595.600
653.133	3550.650
653.262	3620.350
653.390	3549.062
653.518	3662.975
653.646	3607.137
653.774	3762.650
653.902	3622.225
654.030	3584.525
654.158	3604.437
654.287	3571.613
654.415	3600.975
654.543	3621.125
654.671	3664.725
654.799	3658.637
654.927	3603.562
655.055	3593.525
655.183	3640.887
655.312	3610.150
655.440	3659.650
655.568	3596.550
655.696	3718.787
655.824	3744.550
655.952	3634.613
656.080	3591.775
656.208	3786.125
656.337	3667.725
656.465	3667.713
656.593	3707.925
656.721	3678.912
656.849	3743.512
656.977	3660.338
657.105	3682.475
657.233	3658.125
657.362	3661.037
657.490	3655.687
657.618	3674.225
657.746	3678.825
657.874	3672.225
658.002	3645.387
658.130	3681.150
658.258	3662.075
658.387	3695.162
658.515	3668.738
658.643	3752.250
658.771	3699.075
658.899	3717.975
659.027	3701.200
659.155	3731.637
659.283	3866.887
659.412	3728.488
659.540	3833.350
659.668	3714.025
659.796	3767.700
659.924	3810.912
660.052	3713.088
660.180	3782.662
660.308	3770.400
660.437	3749.925
660.565	3766.100
660.693	3747.338
660.821	3771.988
660.949	3776.325
661.077	3754.637
661.205	3804.262
661.333	3764.100
661.462	3864.312
661.590	3837.988
661.718	3960.838
661.846	3919.250
661.974	3992.425
662.102	3830.437
662.230	3853.000
662.358	3835.875
662.487	3832.463
662.615	3827.162
662.743	3773.887
662.871	3831.213
662.999	3801.900
663.127	3816.350
663.255	3967.012
663.383	3934.937
663.512	3837.750
663.640	3909.075
663.768	3851.988
663.896	3884.387
664.024	3933.812
664.152	3891.463
664.280	3909.287
664.408	3924.350
664.537	3953.750
664.665	3880.400
664.793	3856.475
664.921	3904.000
665.049	3918.900
665.177	3923.925
665.305	3942.400
665.433	3954.562
665.562	3914.187
665.690	3977.588
665.818	4135.363
665.946	3967.675
666.074	3960.713
666.202	3946.988
666.330	4028.150
666.458	3998.175
666.587	3916.650
666.715	3973.350
666.843	3953.600
666.971	3933.912
667.099	4014.787
667.227	3990.463
667.355	4038.950
667.483	3996.213
667.612	3993.350
667.740	4044.000
667.868	4077.475
667.996	4047.250
668.124	4030.150
668.252	4007.525
668.380	4013.300
668.508	4034.125
668.637	4058.675
668.765	4040.988
668.893	4087.625
669.021	4009.863
669.149	4108.725
669.277	4131.500
669.405	4077.725
669.533	4062.512
669.662	4299.887
669.790	4089.475
669.918	4176.975
670.046	4070.512
670.174	4173.137
670.302	4164.337
670.430	4108.137
670.558	4184.538
670.687	4105.988
670.815	4276.500
670.943	4060.075
671.071	4118.450
671.199	4160.887
671.327	4120.937
671.455	4126.788
671.583	4119.488
671.712	4278.950
671.840	4135.762
671.968	4097.275
672.096	4140.212
672.224	4114.613
672.352	4300.800
672.480	4131.887
672.608	4083.963
672.737	4119.250
672.865	4286.925
672.993	4120.550
673.121	4099.988
673.249	4149.775
673.377	4110.187
673.505	4130.300
673.633	4134.488
673.762	4116.687
673.890	4101.200
674.018	4340.225
674.146	4118.925
674.274	4143.262
674.402	4321.538
674.530	4146.025
674.658	4136.225
674.787	4111.538
674.915	4096.437
675.043	4194.538
675.171	4174.200
675.299	4112.250
675.427	4160.738
675.555	4107.175
675.683	4114.913
675.812	4139.575
675.940	4162.225
676.068	4157.988
676.196	4158.625
676.324	4153.413
676.452	4197.163
676.580	4152.600
676.708	4212.725
676.837	4217.538
676.965	4123.187
677.093	4118.288
677.221	4118.212
677.349	4178.962
677.477	4230.825
677.605	4133.350
677.733	4219.012
677.862	4107.650
677.990	4127.275
678.118	4142.225
678.246	4164.825
678.374	4131.225
678.502	4099.488
678.630	4077.750
678.758	4074.325
678.887	4100.325
679.015	4118.325
679.143	4119.137
679.271	4125.700
679.399	4161.500
679.527	4148.400
679.655	4119.288
679.783	4134.300
679.912	4151.788
680.040	4146.863
680.168	4130.575
680.296	4149.900
680.424	4107.962
680.552	4145.863
680.680	4217.413
680.808	4106.488
680.937	4107.687
681.065	4139.187
681.193	4153.387
681.321	4128.413
681.449	4120.125
681.577	4133.175
681.705	4174.637
681.833	4122.113
681.962	4108.075
682.090	4287.988
682.218	4108.413
682.346	4108.262
682.474	4151.762
682.602	4125.175
682.730	4160.962
682.858	4135.800
682.987	4172.025
683.115	4162.163
683.243	4163.000
683.371	4134.300
683.499	4129.675
683.627	4224.350
683.755	4214.363
683.883	4316.663
684.012	4212.650
684.140	4181.613
684.268	4163.675
684.396	4183.300
684.524	4214.238
684.652	4265.000
684.780	4239.625
684.908	4247.025
685.037	4189.163
685.165	4154.387
685.293	4223.275
685.421	4302.738
685.549	4171.687
685.677	4209.325
685.805	4369.700
685.933	4233.312
686.062	4217.400
686.190	4192.575
686.318	4262.000
686.446	4247.475
686.574	4237.312
686.702	4343.925
686.830	4199.413
686.958	4227.087
687.087	4235.613
687.215	4256.975
687.343	4213.462
687.471	4233.875
687.599	4261.538
687.727	4416.625
687.855	4283.575
687.983	4288.200
688.112	4362.087
688.240	4225.837
688.368	4219.500
688.496	4284.350
688.624	4325.163
688.752	4199.087
688.880	4257.913
689.008	4270.175
689.137	4245.137
689.265	4214.187
689.393	4257.587
689.521	4259.413
689.649	4212.200
689.777	4218.137
689.905	4234.962
690.033	4238.250
690.162	4261.575
690.290	4255.937
690.418	4244.975
690.546	4256.137
690.674	4340.562
690.802	4225.325
690.930	4290.462
691.058	4269.000
691.187	4267.350
691.315	4216.187
691.443	4339.475
691.571	4236.262
691.699	4261.225
691.827	4316.113
691.955	4206.137
692.083	4234.113
692.212	4381.825
692.340	4218.512
692.468	4257.550
692.596	4256.462
692.724	4378.113
692.852	4199.725
692.980	4273.600
693.108	4204.538
693.237	4195.988
693.365	4218.950
693.493	4181.687
693.621	4211.750
693.749	4173.750
693.877	4163.163
694.005	4288.337
694.133	4216.300
694.262	4234.387
694.390	4172.750
694.518	4164.775
694.646	4187.512
694.774	4171.800
694.902	4308.163
695.030	4267.650
695.158	4162.800
695.287	4157.663
695.415	4161.075
695.543	4166.250
695.671	4255.012
695.799	4160.212
695.927	4168.025
696.055	4176.900
696.183	4183.100
696.312	4152.075
696.440	4323.962
696.568	4214.550
696.696	4138.700
696.824	4083.775
696.952	4124.925
697.080	4134.075
697.208	4092.613
697.337	4187.575
697.465	4133.913
697.593	4068.363
697.721	4076.350
697.849	4111.600
697.977	4088.225
698.105	4123.200
698.233	4035.562
698.362	4051.012
698.490	4058.550
698.618	4048.937
698.746	4197.075
698.874	4081.525
699.002	4238.262
699.130	4053.600
699.258	4075.900
699.387	4035.238
699.515	4076.250
699.643	4045.575
699.771	4089.662
699.899	4052.512
700.027	4072.162
700.155	4003.713
700.283	4019.950
700.412	4062.738
700.540	4064.100
700.668	4090.550
700.796	4003.287
700.924	4017.488
701.052	4000.488
701.180	4127.900
701.308	4042.750
701.437	3999.250
701.565	3949.450
701.693	3967.187
701.821	3959.900
701.949	3973.825
702.077	3985.150
702.205	3928.900
702.333	3968.262
702.462	3948.187
702.590	3961.825
702.718	3931.225
702.846	3946.850
702.974	3909.025
703.102	3911.500
703.230	4017.437
703.358	3985.025
703.487	3858.113
703.615	4082.512
703.743	3904.988
703.871	3904.225
703.999	3911.463
704.127	3992.850
704.255	3858.975
704.383	4039.900
704.512	3877.275
704.640	3885.387
704.768	3809.875
704.896	3924.988
705.024	3833.062
705.152	3917.912
705.280	3814.900
705.408	3809.200
705.537	3805.912
705.665	3793.325
705.793	3799.363
705.921	3764.187
706.049	3812.225
706.177	3757.675
706.305	3746.062
706.433	3864.275
706.562	3766.262
706.690	3745.662
706.818	3730.600
706.946	3936.988
707.074	3747.512
707.202	3714.050
707.330	3765.963
707.458	3692.887
707.587	3674.825
707.715	3714.750
707.843	3731.075
707.971	3735.250
708.099	3749.963
708.227	3667.150
708.355	3668.850
708.483	3661.687
708.612	3663.863
708.740	3690.963
708.868	3738.937
708.996	3608.800
709.124	3621.450
709.252	3645.325
709.380	3610.650
709.508	3641.575
709.637	3614.625
709.765	3611.200
709.893	3590.175
710.021	3619.687
710.149	3581.025
710.277	3600.637
710.405	3587.012
710.533	3581.550
710.662	3571.900
710.790	3553.838
710.918	3582.912
711.046	3551.125
711.174	3557.187
711.302	3559.600
711.430	3640.575
711.558	3541.588
711.687	3528.537
711.815	3537.988
711.943	3519.787
712.071	3527.125
712.199	3559.912
712.327	3515.113
712.455	3494.450
712.583	3519.975
712.712	3507.912
712.840	3502.437
712.968	3458.850
713.096	3520.863
713.224	3430.950
713.352	3479.887
713.480	3429.338
713.608	3434.937
713.737	3471.125
713.865	3441.262
713.993	3466.975
714.121	3405.800
714.249	3406.738
714.377	3488.575
714.505	3437.812
714.633	3542.387
714.762	3439.988
714.890	3370.437
715.018	3395.825
715.146	3355.037
715.274	3452.650
715.402	3517.338
715.530	3443.912
715.658	3335.437
715.787	3353.137
715.915	3524.125
716.043	3314.550
716.171	3413.037
716.299	3421.387
716.427	3337.450
716.555	3291.613
716.683	3320.937
716.812	3313.787
716.940	3346.125
717.068	3271.088
717.196	3437.900
717.324	3338.800
717.452	3322.225
717.580	3257.925
717.708	3249.225
717.837	3309.100
717.965	3229.113
718.093	3231.225
718.221	3217.113
718.349	3256.287
718.477	3246.800
718.605	3244.512
718.733	3217.387
718.862	3191.425
718.990	3180.738
719.118	3186.750
719.246	3148.312
719.374	3250.988
719.502	3185.075
719.630	3229.075
719.758	3140.963
719.887	3145.450
720.015	3282.825
720.143	3119.012
720.271	3112.838
720.399	3094.363
720.527	3160.350
720.655	3186.125
720.783	3206.275
720.912	3081.412
721.040	3065.937
721.168	3070.963
721.296	3096.637
721.424	3027.662
721.552	2997.425
721.680	3013.775
721.808	3057.300
721.937	3044.100
722.065	3094.387
722.193	3116.725
722.321	2986.275
722.449	2968.437
722.577	2968.262
722.705	2926.687
722.833	2977.137
722.962	2955.825
723.090	2930.187
723.218	2882.662
723.346	2885.050
723.474	2861.875
723.602	2952.600
723.730	2920.613
723.858	2999.113
723.987	2912.312
724.115	2959.387
724.243	2874.700
724.371	2892.162
724.499	2878.637
724.627	2823.000
724.755	2788.687
724.883	2820.125
725.012	2826.512
725.140	2855.100
725.268	2812.700
725.396	2738.375
725.524	2742.750
725.652	2796.100
725.780	2739.275
725.908	2790.662
726.037	2876.187
726.165	2723.387
726.293	2705.950
726.421	2680.512
726.549	2674.925
726.677	2701.262
726.805	2670.213
726.933	2665.562
727.062	2679.437
727.190	2658.825
727.318	2650.725
727.446	2649.713
727.574	2643.062
727.702	2698.238
727.830	2603.238
727.958	2620.088
728.087	2592.250
728.215	2626.012
728.343	2615.637
728.471	2562.500
728.599	2549.925
728.727	2595.300
728.855	2551.450
728.983	2511.475
729.112	2541.475
729.240	2512.812
729.368	2523.162
729.496	2508.575
729.624	2517.787
729.752	2473.650
729.880	2500.975
730.008	2483.613
730.137	2458.050
730.265	2518.400
730.393	2439.525
730.521	2468.262
730.649	2423.287
730.777	2419.037
730.905	2388.425
731.033	2424.375
731.162	2425.000
731.290	2382.662
731.418	2434.975
731.546	2425.387
731.674	2386.225
731.802	2373.062
731.930	2374.863
732.058	2336.900
732.187	2325.325
732.315	2323.512
732.443	2330.387
732.571	2349.375
732.699	2328.300
732.827	2305.838
732.955	2281.762
733.083	2272.213
733.212	2291.887
733.340	2293.475
733.468	2293.350
733.596	2263.800
733.724	2247.925
733.852	2239.900
733.980	2238.037
734.108	2268.062
734.237	2253.600
734.365	2203.475
734.493	2205.812
734.621	2199.700
734.749	2206.325
734.877	2187.012
735.005	2203.213
735.133	2198.725
735.262	2198.700
735.390	2149.725
735.518	2165.037
735.646	2152.725
735.774	2144.775
735.902	2134.062
736.030	2136.975
736.158	2125.325
736.287	2117.875
736.415	2144.700
736.543	2120.275
736.671	2086.375
736.799	2086.575
736.927	2096.250
737.055	2107.025
737.183	2080.963
737.312	2068.875
737.440	2054.387
737.568	2069.125
737.696	2063.675
737.824	2058.300
737.952	2052.775
738.080	2037.162
738.208	2031.638
738.337	2011.825
738.465	2013.687
738.593	2012.575
738.721	1981.312
738.849	1986.075
738.977	1983.525
739.105	1970.588
739.233	1953.588
739.362	1963.650
739.490	1950.425
739.618	1932.725
739.746	1928.725
739.874	1952.537
740.002	1938.737
740.130	1920.638
740.258	1914.612
740.387	1921.200
740.515	1892.675
740.643	1879.737
740.771	1901.687
740.899	1868.463
741.027	1858.325
741.155	1870.200
741.283	1838.775
741.412	1855.463
741.540	1852.275
741.668	1841.537
741.796	1834.650
741.924	1841.937
742.052	1801.675
742.180	1786.300
742.308	1782.000
742.437	1789.975
742.565	1771.937
742.693	1780.888
742.821	1759.100
742.949	1761.275
743.077	1755.737
743.205	1738.612
743.333	1745.500
743.462	1732.088
743.590	1721.050
743.718	1702.687
743.846	1710.075
743.974	1693.638
744.102	1681.025
744.230	1675.975
744.358	1674.425
744.487	1669.912
744.615	1654.362
744.743	1653.800
744.871	1657.687
744.999	1650.850
745.127	1632.037
745.255	1602.862
745.383	1623.312
745.512	1613.713
745.640	1585.062
745.768	1601.200
745.896	1593.725
746.024	1571.450
746.152	1554.062
746.280	1562.550
746.408	1566.037
746.537	1549.463
746.665	1543.963
746.793	1534.787
746.921	1520.638
747.049	1527.638
747.177	1507.112
747.305	1494.912
747.433	1496.800
747.562	1482.287
747.690	1477.850
747.818	1464.537
747.946	1462.375
748.074	1465.787
748.202	1449.713
748.330	1433.100
748.458	1444.550
748.587	1420.487
748.715	1405.312
748.843	1411.650
748.971	1409.475
749.099	1398.487
749.227	1399.375
749.355	1384.687
749.483	1399.162
749.612	1359.838
749.740	1345.125
749.868	1356.588
749.996	1352.125
750.124	1345.862
750.252	1335.562
750.380	1324.562
750.508	1320.112
750.637	1304.675
750.765	1306.388
750.893	1296.475
751.021	1295.725
751.149	1285.950
751.277	1269.537
751.405	1280.375
751.533	1276.500
751.662	1266.937
751.790	1260.725
751.918	1255.412
752.046	1236.875
752.174	1225.500
752.302	1232.150
752.430	1225.437
752.558	1210.875
752.687	1198.388
752.815	1211.287
752.943	1197.287
753.071	1174.725
753.199	1164.162
753.327	1175.525
753.455	1150.713
753.583	1143.275
753.712	1158.763
753.840	1134.100
753.968	1136.763
754.096	1120.537
754.224	1119.900
754.352	1113.650
754.480	1119.513
754.608	1104.138
754.737	1105.175
754.865	1105.187
754.993	1086.138
755.121	1075.350
755.249	1080.737
755.377	1067.362
755.505	1062.425
755.633	1072.812
755.762	1039.500
755.890	1050.025
756.018	1053.088
756.146	1037.263
756.274	1026.037
756.402	1012.800
756.530	1010.875
756.658	1025.850
756.787	999.500
756.915	988.462
757.043	996.200
757.171	995.400
757.299	986.375
757.427	973.263
757.555	966.587
757.683	958.538
757.812	961.112
757.940	952.200
758.068	940.700
758.196	929.975
758.324	929.837
758.452	930.600
758.580	913.900
758.708	919.187
758.837	908.187
758.965	911.425
759.093	890.462
759.221	881.087
759.349	888.475
759.477	885.987
759.605	885.125
759.733	867.087
759.862	868.250
759.990	850.875
760.118	859.900
760.246	835.250
760.374	835.975
760.502	836.375
760.630	826.612
760.758	823.925
760.887	809.937
761.015	819.062
761.143	820.325
761.271	807.737
761.399	793.362
761.527	798.687
761.655	790.587
761.783	782.325
761.912	785.200
762.040	774.087
762.168	774.700
762.296	761.650
762.424	757.987
762.552	751.825
762.680	756.950
762.808	740.212
762.937	741.362
763.065	735.525
763.193	731.837
763.321	724.300
763.449	713.663
763.577	722.187
763.705	708.850
763.833	740.250
763.962	694.888
764.090	702.575
764.218	692.875
764.346	697.187
764.474	685.538
764.602	679.812
764.730	674.550
764.858	671.237
764.987	660.263
765.115	671.237
765.243	665.513
765.371	647.800
765.499	641.200
765.627	645.825
765.755	628.437
765.883	634.375
766.012	629.413
766.140	623.775
766.268	618.362
766.396	620.850
766.524	616.900
766.652	611.775
766.780	607.737
766.908	606.600
767.037	603.900
767.165	604.500
767.293	605.413
767.421	591.375
767.549	590.525
767.677	592.675
767.805	583.325
767.933	587.962
768.062	586.025
768.190	581.425
768.318	577.987
768.446	593.937
768.574	572.687
768.702	575.837
768.830	567.587
768.958	551.725
769.087	565.225
769.215	552.275
769.343	549.400
769.471	548.175
769.599	546.625
769.727	542.237
769.855	542.875
769.983	537.062
770.112	532.400
770.240	530.600
770.368	539.525
770.496	531.087
770.624	521.587
770.752	527.437
770.880	532.575
771.008	512.600
771.137	520.775
771.265	520.875
771.393	516.138
771.521	507.363
771.649	505.962
771.777	505.050
771.905	504.725
772.033	500.800
772.162	511.050
772.290	497.312
772.418	501.562
772.546	486.562
772.674	490.062
772.802	490.475
772.930	490.163
773.058	482.163
773.187	481.462
773.315	486.875
773.443	478.812
773.571	475.300
773.699	476.012
773.827	470.000
773.955	484.363
774.083	479.750
774.212	459.650
774.340	460.538
774.468	457.150
774.596	457.437
774.724	463.500
774.852	447.150
774.980	457.387
775.108	451.488
775.237	446.250
775.365	443.712
775.493	445.750
775.621	449.300
775.749	440.363
775.877	443.575
776.005	442.712
776.133	441.038
776.262	437.800
776.390	420.825
776.518	434.125
776.646	425.900
776.774	423.075
776.902	431.275
777.030	424.050
777.158	419.250
777.287	422.800
777.415	417.012
777.543	421.887
777.671	410.712
777.799	408.900
777.927	416.488
778.055	412.000
778.183	414.575
778.312	399.012
778.440	400.600
778.568	405.325
778.696	394.812
778.824	403.150
778.952	394.687
779.080	394.337
779.208	400.812
779.337	393.450
779.465	391.288
779.593	393.288
779.721	391.462
779.849	385.900
779.977	387.600
780.105	377.050
780.233	382.312
780.362	386.150
780.490	380.663
780.618	374.350
780.746	377.187
780.874	366.125
781.002	367.863
781.130	366.400
781.258	364.450
781.387	373.413
781.515	361.613
781.643	361.863
781.771	371.900
781.899	364.025
782.027	358.700
782.155	353.312
782.283	353.575
782.412	352.625
782.540	360.863
782.668	345.413
782.796	347.700
782.924	344.012
783.052	337.562
783.180	349.400
783.308	339.038
783.437	342.650
783.565	347.125
783.693	338.275
783.821	342.663
783.949	334.375
784.077	337.437
784.205	338.800
784.333	343.488
784.462	324.512
784.590	329.062
784.718	333.887
784.846	322.150
784.974	330.450
785.102	333.613
785.230	325.400
785.358	333.837
785.487	325.250
785.615	325.788
785.743	318.962
785.871	313.337
785.999	318.663
786.127	310.437
786.255	318.738
786.383	316.900
786.512	311.825
786.640	310.637
786.768	319.863
786.896	310.887
787.024	302.350
787.152	304.163
787.280	299.363
787.408	300.812
787.537	301.788
787.665	296.825
787.793	301.437
787.921	299.275
788.049	295.637
788.177	289.400
788.305	290.962
788.433	295.900
788.562	288.087
788.690	291.363
788.818	287.538
788.946	288.225
789.074	286.788
789.202	291.038
789.330	285.937
789.458	284.337
789.587	285.363
789.715	281.650
789.843	279.650
789.971	271.675
790.099	273.962
790.227	280.400
790.355	272.725
790.483	278.850
790.612	272.625
790.740	271.012
790.868	274.262
790.996	266.937
791.124	271.975
791.252	274.225
791.380	270.288
791.508	262.275
791.637	272.050
791.765	254.525
791.893	266.000
792.021	270.275
792.149	262.413
792.277	258.363
792.405	257.413
792.533	268.337
792.662	253.187
792.790	254.875
792.918	259.988
793.046	250.037
793.174	251.988
793.302	255.312
793.430	252.137
793.558	254.787
793.687	248.787
793.815	252.387
793.943	250.575
794.071	245.025
794.199	244.625
794.327	246.088
794.455	259.812
794.583	259.800
794.712	243.950
794.840	242.887
794.968	235.812
795.096	243.425
795.224	233.875
795.352	234.812
795.480	239.175
795.608	236.412
795.737	233.075
795.865	231.975
795.993	230.088
796.121	229.300
796.249	236.025
796.377	228.450
796.505	229.537
796.633	228.025
796.762	221.350
796.890	235.375
797.018	223.613
797.146	224.800
797.274	220.162
797.402	220.937
797.530	220.963
797.658	219.400
797.787	224.937
797.915	220.488
798.043	225.213
798.171	226.463
798.299	216.088
798.427	219.338
798.555	222.075
798.683	214.025
798.812	215.238
798.940	212.088
799.068	210.525
799.196	217.988
799.324	208.300
799.452	215.662
799.580	211.213
799.708	216.262
799.837	207.075
799.965	205.787
800.093	209.025
800.221	203.512
800.349	210.300
800.477	207.025
800.605	204.800
800.733	204.062
800.862	206.363
800.990	213.437
801.118	205.675
801.246	200.275
801.374	195.262
801.502	200.713
801.630	191.950
801.758	198.062
801.887	198.250
802.015	195.262
802.143	194.125
802.271	198.937
802.399	194.762
802.527	195.325
802.655	193.825
802.783	199.687
802.912	195.350
803.040	193.700
803.168	187.475
803.296	184.412
803.424	192.775
803.552	185.463
803.680	185.887
803.808	187.775
803.937	182.988
804.065	186.213
804.193	188.025
804.321	195.525
804.449	183.750
804.577	182.088
804.705	185.412
804.833	183.338
804.962	182.050
805.090	176.625
805.218	190.088
805.346	179.088
805.474	180.437
805.602	196.000
805.730	179.287
805.858	177.200
805.987	182.912
806.115	179.562
806.243	182.275
806.371	176.650
806.499	174.950
806.627	172.988
806.755	182.075
806.883	173.975
807.012	173.350
807.140	178.137
807.268	173.412
807.396	176.037
807.524	170.575
807.652	171.600
807.780	187.325
807.908	168.625
808.037	178.350
808.165	173.463
808.293	167.225
808.421	178.863
808.549	167.012
808.677	164.588
808.805	178.550
808.933	166.425
809.062	169.550
809.190	187.088
809.318	166.687
809.446	165.137
809.574	172.363
809.702	167.787
809.830	166.550
809.958	168.875
810.087	165.887
810.215	170.750
810.343	176.400
810.471	168.950
810.599	159.338
810.727	161.525
810.855	157.738
810.983	164.275
811.112	163.725
811.240	158.875
811.368	164.350
811.496	169.588
811.624	164.075
811.752	158.075
811.880	156.300
812.008	155.812
812.137	154.925
812.265	154.925
812.393	162.500
812.521	157.162
812.649	155.488
812.777	155.738
812.905	163.262
813.033	149.225
813.162	149.613
813.290	151.312
813.418	162.400
813.546	157.775
813.674	154.650
813.802	161.062
813.930	152.500
814.058	148.762
814.187	156.225
814.315	153.400
814.443	153.850
814.571	147.925
814.699	157.912
814.827	153.900
814.955	156.925
815.083	155.537
815.212	151.537
815.340	155.650
815.468	148.287
815.596	153.700
815.724	152.613
815.852	153.850
815.980	144.387
816.108	147.275
816.237	144.687
816.365	150.175
816.493	147.937
816.621	144.300
816.749	146.075
816.877	143.875
817.005	150.012
817.133	145.450
817.262	145.325
817.390	151.912
817.518	143.488
817.646	145.425
817.774	143.825
817.902	149.875
818.030	142.162
818.158	145.500
818.287	147.312
818.415	136.088
818.543	141.000
818.671	148.925
818.799	139.562
818.927	145.912
819.055	138.300
819.183	139.350
819.312	140.662
819.440	142.675
819.568	141.937
819.696	150.363
819.824	144.562
819.952	138.900
820.080	140.787
820.208	140.250
820.337	138.887
820.465	143.437
820.593	137.450
820.721	139.300
820.849	137.537
820.977	135.375
821.105	141.912
821.233	134.050
821.362	143.437
821.490	134.850
821.618	132.787
821.746	132.950
821.874	139.350
822.002	137.912
822.130	138.050
822.258	134.575
822.387	134.687
822.515	138.250
822.643	138.963
822.771	133.637
822.899	131.687
823.027	141.975
823.155	130.500
823.283	133.575
823.412	140.338
823.540	133.287
823.668	149.225
823.796	133.363
823.924	139.838
824.052	139.225
824.180	133.687
824.308	135.150
824.437	135.025
824.565	132.325
824.693	133.975
824.821	132.187
824.949	133.200
825.077	133.650
825.205	136.963
825.333	132.200
825.462	138.037
825.590	128.025
825.718	134.150
825.846	132.488
825.974	134.375
826.102	129.625
826.230	130.488
826.358	132.162
826.487	132.238
826.615	138.350
826.743	127.050
826.871	132.550
826.999	137.500
827.127	131.838
827.255	130.950
827.383	125.062
827.512	131.775
827.640	128.575
827.768	127.075
827.896	126.362
828.024	126.037
828.152	129.113
828.280	127.687
828.408	129.825
828.537	126.750
828.665	127.412
828.793	128.662
828.921	129.287
829.049	127.737
829.177	124.263
829.305	123.675
829.433	125.725
829.562	124.487
829.690	125.400
829.818	128.625
829.946	125.950
830.074	124.350
830.202	129.088
830.330	129.838
830.458	133.925
830.587	120.588
830.715	119.175
830.843	122.713
830.971	124.775
831.099	124.088
831.227	120.888
831.355	121.575
831.483	123.263
831.612	129.525
831.740	125.362
831.868	142.687
831.996	121.388
832.124	125.187
832.252	118.037
832.380	123.350
832.508	130.800
832.637	125.675
832.765	123.925
832.893	130.750
833.021	125.437
833.149	119.888
833.277	121.900
833.405	118.912
833.533	121.200
833.662	122.575
833.790	125.287
833.918	128.088
834.046	124.175
834.174	126.875
834.302	121.600
834.430	117.537
834.558	126.937
834.687	124.150
834.815	121.987
834.943	120.412
835.071	120.287
835.199	122.175
835.327	126.375
835.455	118.125
835.583	122.425
835.712	118.050
835.840	121.937
835.968	120.737
836.096	123.638
836.224	127.125
836.352	120.100
836.480	122.350
836.608	127.075
836.737	116.013
836.865	116.237
836.993	117.662
837.121	114.138
837.249	117.725
837.377	122.312
837.505	119.362
837.633	117.437
837.762	116.275
837.890	115.437
838.018	123.675
838.146	125.925
838.274	124.100
838.402	124.937
838.530	118.388
838.658	113.050
838.787	122.750
838.915	118.388
839.043	115.925
839.171	127.300
839.299	118.500
839.427	116.950
839.555	129.162
839.683	120.100
839.812	113.575
839.940	116.013
840.068	118.500
840.196	119.700
840.324	123.412
840.452	123.275
840.580	122.575
840.708	119.775
840.837	122.287
840.965	120.162
841.093	123.600
841.221	124.875
841.349	116.687
841.477	117.612
841.605	116.125
841.733	117.350
841.862	117.375
841.990	118.500
842.118	116.500
842.246	114.425
842.374	112.075
842.502	116.138
842.630	118.025
842.758	115.975
842.887	116.150
843.015	115.412
843.143	119.187
843.271	119.487
843.399	118.838
843.527	114.062
843.655	115.287
843.783	115.412
843.912	114.862
844.040	114.487
844.168	122.912
844.296	120.888
844.424	117.013
844.552	119.725
844.680	124.312
844.808	127.750
844.937	116.775
845.065	111.750
845.193	115.338
845.321	114.263
845.449	115.175
845.577	114.838
845.705	117.162
845.833	115.950
845.962	112.612
846.090	113.437
846.218	119.463
846.346	116.275
846.474	114.250
846.602	113.825
846.730	112.437
846.858	117.950
846.987	112.862
847.115	112.625
847.243	118.800
847.371	117.713
847.499	114.575
847.627	111.450
847.755	112.338
847.883	115.987
848.012	118.725
848.140	114.325
848.268	117.900
848.396	115.700
848.524	115.600
848.652	111.513
848.780	109.975
848.908	115.600
849.037	114.400
849.165	116.662
849.293	112.437
849.421	116.888
849.549	112.650
849.677	111.125
849.805	119.150
849.933	116.412
850.062	115.287
850.190	110.225
850.318	113.437
850.446	112.737
850.574	109.925
850.702	113.800
850.830	113.225
850.958	116.263
851.087	114.463
851.215	118.750
851.343	112.350
851.471	114.362
851.599	113.700
851.727	114.237
851.855	112.875
851.983	120.412
852.112	115.787
852.240	111.050
852.368	111.463
852.496	113.075
852.624	112.838
852.752	111.900
852.880	109.237
853.008	119.037
853.137	119.625
853.265	110.138
853.393	115.787
853.521	119.425
853.649	118.787
853.777	111.687
853.905	115.112
854.033	112.225
854.162	111.912
854.290	110.025
854.418	109.250
854.546	112.300
854.674	115.150
854.802	109.750
854.930	113.200
855.058	108.950
855.187	108.225
855.315	107.013
855.443	107.375
855.571	109.562
855.699	112.475
855.827	113.437
855.955	112.400
856.083	113.437
856.212	113.325
856.340	111.013
856.468	115.675
856.596	113.263
856.724	114.112
856.852	113.037
856.980	111.925
857.108	114.100
857.237	113.775
857.365	114.775
857.493	111.500
857.621	110.750
857.749	111.200
857.877	113.325
858.005	114.850
858.133	110.062
858.262	111.725
858.390	110.225
858.518	106.963
858.646	112.237
858.774	110.013
858.902	111.088
859.030	109.463
859.158	108.375
859.287	111.700
859.415	116.050
859.543	110.175
859.671	112.987
859.799	115.625
859.927	114.150
860.055	113.450
860.183	111.362
860.312	111.950
860.440	110.937
860.568	114.138
860.696	112.175
860.824	121.937
860.952	109.025
861.080	109.612
861.208	109.550
861.337	110.325
861.465	113.100
861.593	115.138
861.721	112.150
861.849	113.987
861.977	110.713
862.105	115.250
862.233	107.737
862.362	110.650
862.490	110.463
862.618	109.125
862.746	109.013
862.874	110.650
863.002	112.150
863.130	115.175
863.258	112.875
863.387	113.263
863.515	116.075
863.643	108.150
863.771	110.700
863.899	109.963
864.027	109.963
864.155	110.250
864.283	110.213
864.412	111.825
864.540	111.088
864.668	107.625
864.796	110.138
864.924	110.325
865.052	116.625
865.180	111.062
865.308	109.187
865.437	113.112
865.565	111.437
865.693	107.375
865.821	109.500
865.949	107.300
866.077	111.425
866.205	109.000
866.333	107.912
866.462	110.650
866.590	109.975
866.718	111.075
866.846	110.725
866.974	110.225
867.102	111.450
867.230	115.013
867.358	110.513
867.487	114.525
867.615	112.838
867.743	111.138
867.871	112.800
867.999	110.612
868.127	107.500
868.255	119.437
868.383	117.862
868.512	109.162
868.640	112.375
868.768	110.400
868.896	109.700
869.024	113.562
869.152	112.600
869.280	110.800
869.408	112.912
869.537	112.175
869.665	113.737
869.793	107.937
869.921	113.425
870.049	113.925
870.177	112.625
870.305	120.763
870.433	112.600
870.562	108.075
870.690	109.263
870.818	107.612
870.946	111.050
871.074	108.175
871.202	111.325
871.330	110.388
871.458	107.112
871.587	107.513
871.715	107.075
871.843	110.687
871.971	113.725
872.099	111.713
872.227	111.450
872.355	109.062
872.483	110.700
872.612	112.362
872.740	110.838
872.868	106.513
872.996	111.287
873.124	110.725
873.252	112.062
873.380	108.112
873.508	109.812
873.637	109.700
873.765	114.025
873.893	111.187
874.021	109.525
874.149	108.775
874.277	113.375
874.405	117.287
874.533	111.312
874.662	325.850
874.790	115.237
874.918	117.650
875.046	113.550
875.174	111.388
875.302	111.200
875.430	112.588
875.558	113.513
875.687	113.562
875.815	112.112
875.943	107.463
876.071	113.312
876.199	113.937
876.327	119.100
876.455	109.562
876.583	113.237
876.712	111.500
876.840	113.763
876.968	109.075
877.096	109.825
877.224	106.450
877.352	106.050
877.480	108.175
877.608	109.925
877.737	109.225
877.865	109.838
877.993	112.062
878.121	106.600
878.249	110.937
878.377	108.550
878.505	109.612
878.633	110.138
878.762	110.100
878.890	108.075
879.018	109.562
879.146	111.838
879.274	110.775
879.402	112.800
879.530	110.987
879.658	111.562
879.787	111.375
879.915	110.175
880.043	108.388
880.171	108.787
880.299	110.463
880.427	111.862
880.555	111.400
880.683	111.062
880.812	110.275
880.940	110.875
881.068	110.775
881.196	107.300
881.324	108.350
881.452	109.263
881.580	111.862
881.708	112.825
881.837	105.963
881.965	110.975
882.093	109.175
882.221	108.125
882.349	115.237
882.477	117.013
882.605	118.513
882.733	108.713
882.862	109.200
882.990	111.625
883.118	111.662
883.246	111.025
883.374	109.937
883.502	111.250
883.630	106.275
883.758	109.612
883.887	108.287
884.015	108.425
884.143	109.062
884.271	110.400
884.399	110.713
884.527	107.350
884.655	109.713
884.783	110.187
884.912	111.950
885.040	106.912
885.168	108.425
885.296	107.225
885.424	108.825
885.552	112.888
885.680	109.225
885.808	111.138
885.937	110.088
886.065	109.975
886.193	109.025
886.321	108.825
886.449	111.412
886.577	113.687
886.705	110.175
886.833	108.412
886.962	108.487
887.090	108.900
887.218	106.725
887.346	110.750
887.474	114.487
887.602	113.662
887.730	108.037
887.858	112.500
887.987	110.450
888.115	116.487
888.243	111.075
888.371	111.750
888.499	111.713
888.627	112.537
888.755	111.312
888.883	106.925
889.012	105.963
889.140	106.350
889.268	115.287
889.396	110.638
889.524	108.987
889.652	108.662
889.780	112.350
889.908	111.787
890.037	109.787
890.165	109.338
890.293	111.888
890.421	108.375
890.549	108.463
890.677	109.400
890.805	108.963
890.933	109.975
891.062	106.350
891.190	112.100
891.318	112.550
891.446	109.912
891.574	110.388
891.702	108.263
891.830	107.600
891.958	110.088
892.087	114.737
892.215	112.450
892.343	110.562
892.471	111.100
892.599	109.650
892.727	113.537
892.855	109.362
892.983	109.213
893.112	109.812
893.240	111.175
893.368	111.187
893.496	111.775
893.624	112.950
893.752	111.513
893.880	110.525
894.008	108.900
894.137	115.575
894.265	112.638
894.393	113.487
894.521	112.638
894.649	112.287
894.777	109.475
894.905	110.312
895.033	114.925
895.162	115.112
895.290	120.838
895.418	112.963
895.546	114.463
895.674	114.900
895.802	110.350
895.930	110.850
896.058	108.237
896.187	107.937
896.315	108.200
896.443	112.963
896.571	112.250
896.699	109.537
896.827	110.475
896.955	112.675
897.083	112.213
897.212	109.475
897.340	106.475
897.468	106.775
897.596	113.088
897.724	110.937
897.852	114.350
897.980	109.825
898.108	108.075
898.237	107.463
898.365	109.187
898.493	109.838
898.621	108.650
898.749	108.787
898.877	110.037
899.005	112.312
899.133	108.075
899.262	107.937
899.390	108.812
899.518	109.687
899.646	113.375
899.774	115.987
899.902	125.487
900.030	110.513
900.158	112.638
900.287	110.950
900.415	109.450
900.543	108.888
900.671	116.287
900.799	111.562
900.927	113.050
901.055	109.138
901.183	109.625
901.312	108.388
901.440	113.025
901.568	112.263
901.696	111.850
901.824	108.588
901.952	116.263
902.080	113.475
902.208	110.213
902.337	110.537
902.465	110.237
902.593	110.687
902.721	111.338
902.849	109.513
902.977	110.362
903.105	115.588
903.233	118.237
903.362	114.338
903.490	112.662
903.618	110.825
903.746	116.300
903.874	111.800
904.002	110.450
904.130	113.650
904.258	116.412
904.387	111.013
904.515	108.200
904.643	108.175
904.771	109.362
904.899	114.112
905.027	110.937
905.155	110.487
905.283	111.475
905.412	119.312
905.540	114.588
905.668	110.362
905.796	106.850
905.924	109.487
906.052	110.025
906.180	110.312
906.308	109.650
906.437	113.987
906.565	112.463
906.693	111.513
906.821	110.600
906.949	109.338
907.077	110.500
907.205	115.925
907.333	114.975
907.462	113.300
907.590	112.412
907.718	110.687
907.846	111.250
907.974	111.550
908.102	111.737
908.230	113.700
908.358	116.350
908.487	112.100
908.615	114.388
908.743	112.463
908.871	113.987
908.999	114.100
909.127	112.862
909.255	107.050
909.383	110.388
909.512	115.050
909.640	117.700
909.768	115.350
909.896	121.525
910.024	116.213
910.152	111.588
910.280	119.525
910.408	112.725
910.537	115.037
910.665	117.625
910.793	114.450
910.921	117.987
911.049	116.375
911.177	111.537
911.305	116.100
911.433	115.450
911.562	112.287
911.690	112.925
911.818	123.400
911.946	114.713
912.074	115.763
912.202	114.213
912.330	111.500
912.458	114.362
912.587	116.225
912.715	116.825
912.843	118.200
912.971	112.312
913.099	122.662
913.227	119.875
913.355	118.875
913.483	118.463
913.612	116.713
913.740	140.175
913.868	118.500
