sample6_PS_at_750.00nm_cut_at_1008.00Y_01.dat
15.05.2023
11:02:44
cut middle at Y: 1008.00
top cursor: 1048 down cursor: 968 mean of: 80 lines , 2560 datapoints
wavelength(nm)	intensity[arb. units]
585.996	1726.737
586.124	1702.375
586.252	1680.550
586.380	1659.237
586.508	1675.500
586.637	1681.862
586.765	1679.112
586.893	1693.013
587.021	1698.600
587.149	1701.200
587.277	1699.750
587.405	1711.162
587.533	1696.675
587.662	1721.225
587.790	1725.787
587.918	1720.900
588.046	1725.513
588.174	1717.875
588.302	1734.812
588.430	1719.987
588.558	1742.625
588.687	1725.900
588.815	1761.150
588.943	1753.662
589.071	1740.888
589.199	1742.937
589.327	1734.325
589.455	1722.612
589.583	1742.625
589.712	1757.787
589.840	1753.062
589.968	1737.138
590.096	1750.437
590.224	1750.888
590.352	1756.112
590.480	1744.575
590.608	1754.388
590.737	1743.763
590.865	1758.850
590.993	1740.537
591.121	1765.763
591.249	1753.025
591.377	1751.213
591.505	1763.437
591.633	1761.500
591.762	1771.463
591.890	1755.725
592.018	1767.112
592.146	1773.812
592.274	1789.775
592.402	1773.662
592.530	1769.737
592.658	1791.025
592.787	1789.013
592.915	1777.513
593.043	1789.138
593.171	1796.412
593.299	1810.662
593.427	1797.075
593.555	1810.838
593.683	1809.937
593.812	1814.838
593.940	1824.350
594.068	1832.075
594.196	1863.250
594.324	1817.200
594.452	1861.112
594.580	1865.937
594.708	1846.800
594.837	1847.862
594.965	1859.987
595.093	1878.425
595.221	1874.537
595.349	1895.675
595.477	1882.675
595.605	1878.062
595.733	1920.175
595.862	1913.963
595.990	1925.162
596.118	1915.050
596.246	1924.000
596.374	1950.925
596.502	1957.662
596.630	1956.600
596.758	1959.713
596.887	1968.900
597.015	1994.662
597.143	1953.825
597.271	1982.225
597.399	1990.662
597.527	1995.875
597.655	1984.575
597.783	2003.138
597.912	1970.200
598.040	2008.062
598.168	1997.875
598.296	1996.750
598.424	1988.937
598.552	2001.862
598.680	1985.963
598.808	1997.263
598.937	2013.500
599.065	2022.338
599.193	2008.775
599.321	1977.700
599.449	2023.013
599.577	2010.400
599.705	2003.162
599.833	2012.487
599.962	2005.388
600.090	2000.900
600.218	2010.700
600.346	2029.275
600.474	2026.912
600.602	2022.963
600.730	2035.487
600.858	2027.662
600.987	2045.638
601.115	2017.237
601.243	2036.588
601.371	2053.100
601.499	2055.262
601.627	2047.187
601.755	2073.488
601.883	2073.162
602.012	2097.775
602.140	2090.600
602.268	2092.600
602.396	2102.062
602.524	2110.162
602.652	2121.850
602.780	2111.600
602.908	2130.875
603.037	2153.187
603.165	2152.600
603.293	2166.412
603.421	2190.562
603.549	2177.512
603.677	2232.937
603.805	2185.912
603.933	2220.450
604.062	2216.312
604.190	2257.463
604.318	2230.200
604.446	2276.225
604.574	2280.050
604.702	2270.537
604.830	2284.088
604.958	2294.812
605.087	2324.075
605.215	2331.200
605.343	2347.750
605.471	2348.675
605.599	2359.687
605.727	2362.787
605.855	2388.312
605.983	2367.650
606.112	2392.787
606.240	2409.562
606.368	2433.412
606.496	2478.175
606.624	2427.525
606.752	2458.637
606.880	2500.662
607.008	2543.675
607.137	2535.250
607.265	2475.600
607.393	2506.275
607.521	2536.012
607.649	2476.713
607.777	2508.900
607.905	2518.412
608.033	2515.363
608.162	2492.262
608.290	2545.713
608.418	2520.900
608.546	2536.713
608.674	2556.988
608.802	2512.937
608.930	2545.200
609.058	2527.925
609.187	2566.613
609.315	2584.238
609.443	2552.775
609.571	2586.713
609.699	2553.287
609.827	2563.213
609.955	2599.075
610.083	2548.463
610.212	2568.812
610.340	2563.887
610.468	2623.475
610.596	2620.338
610.724	2617.838
610.852	2583.650
610.980	2594.887
611.108	2664.450
611.237	2601.162
611.365	2610.537
611.493	2596.238
611.621	2641.100
611.749	2628.088
611.877	2646.412
612.005	2638.975
612.133	2658.750
612.262	2651.650
612.390	2659.162
612.518	2713.925
612.646	2755.662
612.774	2681.600
612.902	2670.988
613.030	2705.225
613.158	2756.887
613.287	2735.850
613.415	2707.662
613.543	2712.037
613.671	2726.963
613.799	2782.012
613.927	2766.575
614.055	2761.150
614.183	2910.162
614.312	2779.925
614.440	2888.475
614.568	2797.387
614.696	2812.812
614.824	3002.825
614.952	2860.113
615.080	2831.312
615.208	2897.988
615.337	2884.338
615.465	2868.412
615.593	2893.950
615.721	2938.525
615.849	2948.588
615.977	2958.287
616.105	3014.012
616.233	2952.225
616.362	3050.488
616.490	2970.525
616.618	2978.050
616.746	3071.787
616.874	3085.925
617.002	3042.512
617.130	3098.863
617.258	3204.588
617.387	3107.425
617.515	3089.225
617.643	3092.425
617.771	3164.225
617.899	3168.950
618.027	3107.550
618.155	3256.650
618.283	3124.000
618.412	3182.400
618.540	3258.838
618.668	3228.662
618.796	3221.450
618.924	3324.762
619.052	3224.088
619.180	3205.863
619.308	3272.162
619.437	3272.325
619.565	3271.000
619.693	3254.262
619.821	3283.238
619.949	3276.838
620.077	3330.825
620.205	3350.475
620.333	3338.238
620.462	3375.050
620.590	3431.463
620.718	3360.787
620.846	3455.312
620.974	3453.750
621.102	3404.100
621.230	3360.387
621.358	3503.850
621.487	3384.037
621.615	3426.213
621.743	3448.875
621.871	3442.863
621.999	3525.463
622.127	3461.213
622.255	3468.687
622.383	3467.387
622.512	3481.475
622.640	3623.075
622.768	3433.800
622.896	3497.250
623.024	3474.400
623.152	3575.463
623.280	3560.137
623.408	3476.050
623.537	3532.725
623.665	3496.437
623.793	3576.012
623.921	3520.537
624.049	3505.537
624.177	3532.850
624.305	3624.937
624.433	3577.213
624.562	3594.225
624.690	3601.537
624.818	3646.312
624.946	3764.537
625.074	3658.912
625.202	3593.613
625.330	3598.613
625.458	3677.512
625.587	3632.500
625.715	3705.425
625.843	3770.000
625.971	3669.550
626.099	3670.912
626.227	3676.238
626.355	3652.125
626.483	3780.162
626.612	3688.975
626.740	3658.850
626.868	3746.037
626.996	3682.387
627.124	3690.450
627.252	3699.475
627.380	3755.800
627.508	3750.162
627.637	3716.750
627.765	3769.262
627.893	3778.550
628.021	3778.675
628.149	3803.437
628.277	3849.338
628.405	3900.200
628.533	3787.075
628.662	3872.012
628.790	3839.050
628.918	3850.437
629.046	3849.025
629.174	3872.713
629.302	3976.287
629.430	3877.662
629.558	3919.875
629.687	3916.050
629.815	3937.025
629.943	3981.650
630.071	3986.575
630.199	3965.050
630.327	3995.475
630.455	3982.488
630.583	4077.762
630.712	4044.550
630.840	4035.625
630.968	4116.887
631.096	4046.863
631.224	4065.400
631.352	4073.875
631.480	4120.875
631.608	4109.887
631.737	4202.988
631.865	4302.975
631.993	4143.462
632.121	4240.525
632.249	4236.825
632.377	4234.050
632.505	4251.837
632.633	4165.087
632.762	4234.413
632.890	4363.050
633.018	4219.337
633.146	4290.712
633.274	4289.837
633.402	4279.562
633.530	4265.663
633.658	4427.375
633.787	4259.125
633.915	4352.600
634.043	4309.600
634.171	4291.550
634.299	4341.425
634.427	4446.750
634.555	4360.312
634.683	4329.525
634.812	4319.300
634.940	4343.625
635.068	4296.887
635.196	4373.200
635.324	4348.825
635.452	4439.038
635.580	4336.163
635.708	4370.687
635.837	4427.800
635.965	4401.137
636.093	4382.637
636.221	4356.075
636.349	4439.988
636.477	4319.988
636.605	4524.087
636.733	4326.850
636.862	4340.450
636.990	4369.150
637.118	4433.850
637.246	4393.250
637.374	4360.925
637.502	4362.475
637.630	4316.988
637.758	4378.738
637.887	4332.500
638.015	4321.038
638.143	4307.575
638.271	4355.062
638.399	4342.075
638.527	4310.038
638.655	4301.913
638.783	4479.337
638.912	4357.613
639.040	4339.413
639.168	4384.225
639.296	4330.337
639.424	4449.038
639.552	4294.538
639.680	4338.175
639.808	4362.575
639.937	4290.913
640.065	4294.587
640.193	4424.387
640.321	4299.663
640.449	4368.837
640.577	4432.350
640.705	4349.137
640.833	4458.925
640.962	4298.325
641.090	4313.875
641.218	4291.625
641.346	4357.525
641.474	4379.262
641.602	4308.675
641.730	4316.062
641.858	4304.925
641.987	4339.450
642.115	4329.762
642.243	4386.062
642.371	4355.913
642.499	4334.700
642.627	4362.587
642.755	4423.450
642.883	4431.512
643.012	4383.363
643.140	4342.962
643.268	4360.450
643.396	4392.625
643.524	4512.913
643.652	4358.887
643.780	4375.375
643.908	4378.962
644.037	4512.913
644.165	4383.000
644.293	4391.025
644.421	4368.738
644.549	4444.225
644.677	4372.962
644.805	4444.087
644.933	4378.550
645.062	4381.025
645.190	4397.462
645.318	4480.512
645.446	4413.650
645.574	4434.275
645.702	4396.587
645.830	4578.437
645.958	4394.550
646.087	4573.425
646.215	4393.988
646.343	4579.200
646.471	4460.837
646.599	4460.925
646.727	4375.637
646.855	4414.387
646.983	4437.238
647.112	4364.462
647.240	4554.750
647.368	4402.475
647.496	4447.512
647.624	4384.775
647.752	4367.712
647.880	4375.837
648.008	4389.238
648.137	4363.538
648.265	4348.387
648.393	4355.613
648.521	4371.325
648.649	4396.675
648.777	4375.900
648.905	4324.550
649.033	4361.650
649.162	4364.825
649.290	4332.350
649.418	4378.825
649.546	4392.238
649.674	4395.062
649.802	4326.238
649.930	4449.113
650.058	4256.288
650.187	4309.937
650.315	4258.025
650.443	4324.413
650.571	4269.312
650.699	4232.425
650.827	4215.538
650.955	4263.150
651.083	4252.288
651.212	4289.387
651.340	4296.738
651.468	4232.550
651.596	4187.113
651.724	4171.850
651.852	4190.962
651.980	4160.212
652.108	4270.825
652.237	4176.312
652.365	4234.075
652.493	4133.038
652.621	4116.413
652.749	4199.988
652.877	4083.400
653.005	4128.550
653.133	4071.550
653.262	4117.538
653.390	4068.687
653.518	4182.437
653.646	4060.950
653.774	4220.050
653.902	4080.800
654.030	4008.088
654.158	4047.075
654.287	4012.463
654.415	4033.488
654.543	4008.250
654.671	4047.150
654.799	3993.463
654.927	3961.312
655.055	3953.062
655.183	3980.425
655.312	3942.287
655.440	3990.050
655.568	3918.850
655.696	3996.113
655.824	4011.062
655.952	3912.213
656.080	3842.437
656.208	4038.262
656.337	3889.700
656.465	3890.238
656.593	3903.875
656.721	3860.613
656.849	3902.512
656.977	3818.925
657.105	3821.950
657.233	3780.637
657.362	3787.950
657.490	3781.175
657.618	3775.100
657.746	3752.425
657.874	3728.187
658.002	3710.137
658.130	3741.912
658.258	3674.412
658.387	3724.200
658.515	3663.825
658.643	3724.687
658.771	3683.838
658.899	3698.700
659.027	3666.525
659.155	3658.150
659.283	3788.975
659.412	3651.537
659.540	3751.988
659.668	3616.687
659.796	3652.100
659.924	3678.050
660.052	3561.887
660.180	3618.650
660.308	3612.300
660.437	3563.963
660.565	3570.762
660.693	3564.975
660.821	3533.988
660.949	3528.775
661.077	3495.050
661.205	3526.175
661.333	3483.912
661.462	3589.562
661.590	3519.400
661.718	3670.488
661.846	3544.475
661.974	3623.450
662.102	3461.250
662.230	3480.950
662.358	3446.088
662.487	3445.137
662.615	3416.412
662.743	3375.662
662.871	3389.525
662.999	3383.537
663.127	3340.312
663.255	3482.062
663.383	3452.363
663.512	3349.700
663.640	3369.437
663.768	3319.113
663.896	3336.687
664.024	3358.525
664.152	3310.213
664.280	3328.975
664.408	3328.762
664.537	3362.400
664.665	3241.825
664.793	3226.325
664.921	3230.375
665.049	3246.137
665.177	3256.637
665.305	3253.475
665.433	3237.613
665.562	3194.200
665.690	3223.950
665.818	3403.512
665.946	3219.050
666.074	3215.550
666.202	3183.000
666.330	3227.387
666.458	3204.887
666.587	3126.525
666.715	3150.250
666.843	3128.725
666.971	3115.863
667.099	3133.175
667.227	3122.725
667.355	3137.312
667.483	3091.125
667.612	3105.900
667.740	3119.287
667.868	3154.713
667.996	3087.625
668.124	3035.463
668.252	3045.225
668.380	3029.963
668.508	3053.887
668.637	3041.475
668.765	2991.937
668.893	3061.925
669.021	2988.700
669.149	3043.625
669.277	3049.650
669.405	2959.500
669.533	2963.600
669.662	3222.000
669.790	2961.338
669.918	3033.312
670.046	2935.312
670.174	3027.088
670.302	3009.363
670.430	2934.275
670.558	2982.775
670.687	2902.200
670.815	3061.287
670.943	2838.750
671.071	2874.512
671.199	2915.988
671.327	2849.100
671.455	2854.525
671.583	2843.412
671.712	3002.887
671.840	2842.113
671.968	2788.537
672.096	2816.113
672.224	2788.662
672.352	2927.650
672.480	2787.787
672.608	2738.113
672.737	2733.725
672.865	2898.238
672.993	2724.575
673.121	2703.287
673.249	2717.375
673.377	2680.625
673.505	2683.750
673.633	2680.050
673.762	2664.863
673.890	2667.838
674.018	2816.100
674.146	2639.825
674.274	2646.225
674.402	2749.613
674.530	2627.713
674.658	2634.100
674.787	2574.488
674.915	2574.050
675.043	2616.312
675.171	2603.875
675.299	2564.075
675.427	2574.250
675.555	2535.787
675.683	2535.062
675.812	2537.350
675.940	2525.387
676.068	2533.775
676.196	2514.900
676.324	2519.463
676.452	2502.375
676.580	2478.887
676.708	2499.600
676.837	2504.250
676.965	2445.225
677.093	2467.725
677.221	2451.988
677.349	2436.762
677.477	2455.588
677.605	2412.412
677.733	2447.562
677.862	2393.512
677.990	2403.062
678.118	2395.250
678.246	2368.925
678.374	2331.662
678.502	2354.000
678.630	2343.787
678.758	2328.113
678.887	2324.113
679.015	2323.863
679.143	2306.675
679.271	2283.375
679.399	2297.113
679.527	2264.488
679.655	2259.225
679.783	2265.637
679.912	2276.275
680.040	2272.887
680.168	2243.412
680.296	2232.637
680.424	2239.113
680.552	2204.175
680.680	2242.325
680.808	2189.113
680.937	2190.375
681.065	2193.262
681.193	2170.812
681.321	2195.775
681.449	2180.025
681.577	2169.075
681.705	2145.800
681.833	2124.387
681.962	2131.325
682.090	2153.437
682.218	2115.600
682.346	2103.275
682.474	2116.213
682.602	2119.137
682.730	2099.400
682.858	2083.775
682.987	2098.525
683.115	2084.488
683.243	2061.375
683.371	2074.887
683.499	2034.062
683.627	2081.312
683.755	2040.075
683.883	2032.362
684.012	2021.300
684.140	2025.287
684.268	2014.687
684.396	2020.900
684.524	2010.250
684.652	2028.787
684.780	2015.787
684.908	1996.838
685.037	1995.213
685.165	1977.225
685.293	1980.537
685.421	1959.237
685.549	1963.225
685.677	1969.575
685.805	1951.838
685.933	1946.338
686.062	1934.287
686.190	1946.312
686.318	1955.325
686.446	1929.437
686.574	1916.838
686.702	1927.650
686.830	1927.400
686.958	1898.062
687.087	1895.175
687.215	1877.325
687.343	1872.463
687.471	1890.937
687.599	1852.550
687.727	1857.312
687.855	1874.912
687.983	1859.662
688.112	1853.350
688.240	1835.250
688.368	1831.975
688.496	1831.450
688.624	1830.300
688.752	1823.112
688.880	1828.862
689.008	1814.700
689.137	1805.525
689.265	1799.075
689.393	1779.675
689.521	1794.425
689.649	1786.925
689.777	1776.537
689.905	1777.125
690.033	1771.300
690.162	1746.950
690.290	1757.525
690.418	1745.975
690.546	1765.362
690.674	1761.350
690.802	1708.787
690.930	1724.187
691.058	1709.838
691.187	1703.912
691.315	1731.600
691.443	1701.937
691.571	1684.187
691.699	1675.750
691.827	1680.550
691.955	1676.650
692.083	1669.975
692.212	1650.987
692.340	1668.250
692.468	1663.362
692.596	1648.037
692.724	1628.263
692.852	1633.675
692.980	1643.250
693.108	1625.437
693.237	1614.925
693.365	1607.013
693.493	1590.037
693.621	1595.675
693.749	1583.713
693.877	1570.537
694.005	1552.812
694.133	1580.187
694.262	1557.287
694.390	1556.263
694.518	1529.213
694.646	1534.412
694.774	1525.838
694.902	1518.437
695.030	1548.763
695.158	1494.550
695.287	1512.662
695.415	1508.100
695.543	1500.425
695.671	1496.750
695.799	1469.675
695.927	1478.675
696.055	1454.425
696.183	1490.900
696.312	1468.713
696.440	1437.825
696.568	1445.787
696.696	1433.925
696.824	1422.112
696.952	1426.025
697.080	1416.825
697.208	1423.763
697.337	1400.950
697.465	1395.525
697.593	1397.075
697.721	1396.987
697.849	1392.487
697.977	1387.650
698.105	1399.737
698.233	1372.475
698.362	1359.100
698.490	1355.487
698.618	1353.600
698.746	1360.213
698.874	1355.338
699.002	1353.300
699.130	1329.625
699.258	1339.487
699.387	1317.075
699.515	1321.150
699.643	1318.463
699.771	1317.513
699.899	1316.312
700.027	1311.825
700.155	1294.100
700.283	1286.237
700.412	1274.263
700.540	1269.287
700.668	1269.737
700.796	1263.100
700.924	1257.075
701.052	1263.175
701.180	1250.050
701.308	1245.600
701.437	1237.300
701.565	1242.300
701.693	1229.287
701.821	1247.375
701.949	1239.425
702.077	1211.050
702.205	1226.000
702.333	1209.725
702.462	1210.187
702.590	1197.112
702.718	1198.763
702.846	1193.138
702.974	1195.625
703.102	1188.687
703.230	1183.162
703.358	1151.050
703.487	1160.450
703.615	1162.888
703.743	1143.138
703.871	1164.237
703.999	1141.175
704.127	1147.100
704.255	1128.662
704.383	1141.912
704.512	1120.338
704.640	1117.300
704.768	1116.487
704.896	1102.775
705.024	1101.050
705.152	1096.362
705.280	1103.475
705.408	1085.763
705.537	1090.487
705.665	1087.500
705.793	1083.463
705.921	1080.013
706.049	1082.612
706.177	1072.925
706.305	1058.725
706.433	1057.200
706.562	1052.300
706.690	1042.450
706.818	1033.700
706.946	1039.263
707.074	1038.450
707.202	1026.525
707.330	1023.163
707.458	1024.138
707.587	1017.763
707.715	1017.375
707.843	1001.687
707.971	1004.013
708.099	997.400
708.227	981.388
708.355	988.112
708.483	992.700
708.612	984.687
708.740	991.725
708.868	974.150
708.996	979.700
709.124	980.538
709.252	964.050
709.380	957.625
709.508	946.625
709.637	950.687
709.765	944.562
709.893	937.750
710.021	936.675
710.149	943.763
710.277	948.038
710.405	936.288
710.533	922.625
710.662	920.888
710.790	920.937
710.918	912.687
711.046	905.237
711.174	912.975
711.302	909.075
711.430	900.550
711.558	901.525
711.687	890.687
711.815	889.725
711.943	899.075
712.071	889.500
712.199	883.025
712.327	883.025
712.455	879.425
712.583	878.775
712.712	889.550
712.840	880.212
712.968	865.800
713.096	858.937
713.224	860.400
713.352	856.937
713.480	849.062
713.608	845.362
713.737	834.788
713.865	838.550
713.993	839.812
714.121	827.513
714.249	841.112
714.377	828.913
714.505	831.375
714.633	819.075
714.762	815.288
714.890	820.350
715.018	819.513
715.146	803.687
715.274	806.812
715.402	802.075
715.530	801.937
715.658	794.250
715.787	808.025
715.915	797.837
716.043	797.275
716.171	792.575
716.299	800.925
716.427	787.562
716.555	780.700
716.683	781.500
716.812	778.112
716.940	779.837
717.068	757.425
717.196	761.312
717.324	769.400
717.452	758.475
717.580	758.163
717.708	754.925
717.837	762.163
717.965	752.900
718.093	750.413
718.221	736.225
718.349	744.138
718.477	737.425
718.605	723.638
718.733	735.237
718.862	726.300
718.990	720.050
719.118	722.600
719.246	719.900
719.374	718.062
719.502	733.538
719.630	726.675
719.758	711.337
719.887	712.388
720.015	711.575
720.143	706.975
720.271	705.825
720.399	700.538
720.527	705.125
720.655	690.638
720.783	697.175
720.912	697.163
721.040	700.525
721.168	685.462
721.296	684.612
721.424	690.788
721.552	677.237
721.680	667.437
721.808	680.250
721.937	678.612
722.065	672.475
722.193	659.937
722.321	666.250
722.449	666.388
722.577	674.038
722.705	649.525
722.833	652.250
722.962	654.562
723.090	642.862
723.218	647.388
723.346	651.700
723.474	648.575
723.602	642.950
723.730	635.337
723.858	641.587
723.987	639.562
724.115	634.013
724.243	634.325
724.371	631.875
724.499	629.437
724.627	626.950
724.755	625.638
724.883	621.013
725.012	622.013
725.140	617.013
725.268	619.112
725.396	614.500
725.524	602.937
725.652	603.475
725.780	599.513
725.908	602.663
726.037	594.562
726.165	588.700
726.293	588.150
726.421	590.737
726.549	594.625
726.677	580.913
726.805	585.950
726.933	586.587
727.062	574.225
727.190	581.475
727.318	579.562
727.446	575.788
727.574	577.250
727.702	570.750
727.830	574.150
727.958	570.850
728.087	572.862
728.215	564.462
728.343	562.962
728.471	563.987
728.599	549.475
728.727	557.575
728.855	564.212
728.983	550.275
729.112	544.900
729.240	543.300
729.368	545.025
729.496	549.525
729.624	537.388
729.752	540.200
729.880	540.550
730.008	544.812
730.137	537.038
730.265	539.725
730.393	532.687
730.521	527.112
730.649	524.950
730.777	533.737
730.905	522.775
731.033	518.300
731.162	514.800
731.290	520.388
731.418	521.675
731.546	537.475
731.674	509.212
731.802	513.975
731.930	510.000
732.058	502.625
732.187	503.562
732.315	508.725
732.443	510.725
732.571	496.212
732.699	498.312
732.827	497.363
732.955	495.687
733.083	489.937
733.212	489.625
733.340	490.925
733.468	494.913
733.596	490.337
733.724	474.975
733.852	494.062
733.980	481.113
734.108	487.538
734.237	494.150
734.365	477.075
734.493	480.450
734.621	476.437
734.749	475.187
734.877	474.187
735.005	465.625
735.133	476.988
735.262	473.975
735.390	466.450
735.518	466.512
735.646	464.738
735.774	465.687
735.902	466.275
736.030	462.750
736.158	469.363
736.287	457.350
736.415	462.675
736.543	455.113
736.671	448.125
736.799	452.413
736.927	463.937
737.055	450.337
737.183	451.712
737.312	457.050
737.440	452.762
737.568	461.600
737.696	453.750
737.824	444.312
737.952	453.975
738.080	454.100
738.208	448.812
738.337	438.837
738.465	453.663
738.593	442.600
738.721	427.850
738.849	436.562
738.977	437.937
739.105	435.238
739.233	433.450
739.362	422.925
739.490	423.250
739.618	419.500
739.746	433.788
739.874	431.663
740.002	419.150
740.130	417.525
740.258	425.988
740.387	424.812
740.515	417.038
740.643	419.450
740.771	421.212
740.899	418.500
741.027	417.150
741.155	418.363
741.283	410.550
741.412	421.100
741.540	407.562
741.668	409.000
741.796	406.100
741.924	412.500
742.052	412.400
742.180	405.663
742.308	406.750
742.437	409.137
742.565	408.562
742.693	405.325
742.821	403.562
742.949	394.587
743.077	403.837
743.205	396.550
743.333	406.887
743.462	402.212
743.590	397.575
743.718	387.900
743.846	389.200
743.974	390.500
744.102	388.325
744.230	386.562
744.358	381.512
744.487	399.550
744.615	384.000
744.743	393.225
744.871	378.962
744.999	391.525
745.127	378.863
745.255	376.075
745.383	380.587
745.512	388.038
745.640	371.825
745.768	376.400
745.896	374.700
746.024	376.988
746.152	374.650
746.280	378.913
746.408	377.875
746.537	380.712
746.665	375.837
746.793	367.538
746.921	367.475
747.049	368.137
747.177	371.500
747.305	361.887
747.433	368.762
747.562	358.613
747.690	359.175
747.818	361.087
747.946	356.887
748.074	377.550
748.202	361.950
748.330	352.613
748.458	358.950
748.587	358.337
748.715	355.550
748.843	352.812
748.971	350.325
749.099	350.062
749.227	355.550
749.355	343.775
749.483	354.250
749.612	345.225
749.740	342.512
749.868	339.125
749.996	342.225
750.124	348.762
750.252	345.475
750.380	346.637
750.508	337.025
750.637	336.562
750.765	339.200
750.893	332.175
751.021	334.038
751.149	333.738
751.277	341.637
751.405	335.413
751.533	341.812
751.662	337.238
751.790	347.450
751.918	343.850
752.046	326.750
752.174	326.075
752.302	334.413
752.430	335.212
752.558	326.413
752.687	324.500
752.815	333.500
752.943	325.512
753.071	316.062
753.199	321.575
753.327	322.887
753.455	313.600
753.583	314.225
753.712	325.450
753.840	308.937
753.968	316.562
754.096	315.450
754.224	310.450
754.352	309.175
754.480	313.312
754.608	306.300
754.737	315.950
754.865	309.512
754.993	311.875
755.121	305.300
755.249	314.300
755.377	305.825
755.505	300.462
755.633	319.875
755.762	293.663
755.890	319.937
756.018	309.925
756.146	299.913
756.274	300.363
756.402	295.150
756.530	304.363
756.658	303.725
756.787	291.550
756.915	291.413
757.043	295.000
757.171	292.600
757.299	287.962
757.427	291.762
757.555	290.900
757.683	294.800
757.812	289.587
757.940	289.988
758.068	291.288
758.196	282.500
758.324	285.663
758.452	280.025
758.580	283.250
758.708	287.075
758.837	281.550
758.965	290.288
759.093	281.038
759.221	281.450
759.349	275.613
759.477	273.450
759.605	274.887
759.733	277.925
759.862	279.225
759.990	273.712
760.118	279.525
760.246	266.950
760.374	270.675
760.502	279.925
760.630	271.788
760.758	266.988
760.887	262.525
761.015	266.663
761.143	269.038
761.271	268.637
761.399	263.887
761.527	262.387
761.655	267.137
761.783	262.925
761.912	259.025
762.040	262.637
762.168	264.000
762.296	256.050
762.424	251.750
762.552	255.988
762.680	263.863
762.808	257.962
762.937	261.137
763.065	256.587
763.193	254.262
763.321	255.950
763.449	250.312
763.577	248.600
763.705	257.050
763.833	271.475
763.962	248.350
764.090	250.912
764.218	251.925
764.346	249.963
764.474	239.925
764.602	244.137
764.730	246.400
764.858	245.850
764.987	245.963
765.115	244.012
765.243	247.137
765.371	241.650
765.499	236.250
765.627	238.412
765.755	238.512
765.883	234.488
766.012	237.937
766.140	233.025
766.268	236.338
766.396	234.625
766.524	229.662
766.652	235.275
766.780	234.812
766.908	231.750
767.037	231.863
767.165	229.875
767.293	234.687
767.421	228.738
767.549	225.700
767.677	232.975
767.805	221.437
767.933	232.137
768.062	228.537
768.190	226.425
768.318	222.613
768.446	241.575
768.574	230.925
768.702	229.750
768.830	222.275
768.958	221.675
769.087	223.000
769.215	218.738
769.343	219.500
769.471	221.963
769.599	219.363
769.727	217.500
769.855	221.162
769.983	218.175
770.112	221.550
770.240	216.637
770.368	219.050
770.496	212.225
770.624	210.863
770.752	212.000
770.880	228.400
771.008	216.825
771.137	216.662
771.265	219.338
771.393	213.100
771.521	214.175
771.649	207.050
771.777	209.037
771.905	209.012
772.033	213.113
772.162	211.338
772.290	211.750
772.418	216.537
772.546	206.450
772.674	202.687
772.802	209.775
772.930	208.075
773.058	209.650
773.187	209.012
773.315	208.363
773.443	207.012
773.571	200.875
773.699	200.762
773.827	194.762
773.955	211.700
774.083	220.675
774.212	199.363
774.340	201.137
774.468	202.437
774.596	201.875
774.724	208.375
774.852	195.525
774.980	201.250
775.108	195.550
775.237	193.225
775.365	199.637
775.493	197.312
775.621	199.975
775.749	199.450
775.877	206.075
776.005	194.700
776.133	200.200
776.262	199.162
776.390	194.363
776.518	201.363
776.646	192.312
776.774	192.950
776.902	196.312
777.030	190.950
777.158	196.613
777.287	192.213
777.415	191.787
777.543	191.287
777.671	187.625
777.799	185.025
777.927	190.800
778.055	196.713
778.183	195.600
778.312	183.725
778.440	183.975
778.568	195.988
778.696	186.287
778.824	190.588
778.952	186.950
779.080	186.338
779.208	192.662
779.337	188.100
779.465	192.975
779.593	186.863
779.721	190.437
779.849	185.062
779.977	190.937
780.105	184.775
780.233	185.562
780.362	193.312
780.490	185.412
780.618	183.575
780.746	184.338
780.874	181.537
781.002	178.588
781.130	178.812
781.258	180.875
781.387	184.863
781.515	179.850
781.643	180.463
781.771	188.162
781.899	177.700
782.027	179.588
782.155	179.400
782.283	174.963
782.412	182.425
782.540	186.887
782.668	177.338
782.796	172.700
782.924	176.725
783.052	172.137
783.180	178.550
783.308	171.012
783.437	177.375
783.565	175.463
783.693	179.662
783.821	177.687
783.949	172.950
784.077	175.937
784.205	178.425
784.333	187.887
784.462	169.925
784.590	173.812
784.718	171.275
784.846	167.700
784.974	175.300
785.102	181.100
785.230	171.088
785.358	182.125
785.487	170.600
785.615	174.525
785.743	169.350
785.871	167.475
785.999	171.363
786.127	161.925
786.255	177.325
786.383	174.400
786.512	163.975
786.640	169.925
786.768	171.762
786.896	164.537
787.024	167.613
787.152	163.588
787.280	163.963
787.408	165.887
787.537	166.150
787.665	169.787
787.793	167.812
787.921	167.537
788.049	160.700
788.177	160.100
788.305	159.687
788.433	166.988
788.562	162.825
788.690	155.812
788.818	160.412
788.946	160.025
789.074	156.550
789.202	164.062
789.330	154.662
789.458	161.625
789.587	161.175
789.715	162.350
789.843	161.425
789.971	158.050
790.099	156.287
790.227	159.900
790.355	154.988
790.483	160.687
790.612	158.250
790.740	158.562
790.868	164.150
790.996	155.812
791.124	158.725
791.252	155.062
791.380	157.187
791.508	150.625
791.637	165.613
791.765	152.713
791.893	150.725
792.021	161.738
792.149	152.562
792.277	154.775
792.405	154.575
792.533	163.912
792.662	147.137
792.790	150.762
792.918	157.875
793.046	152.175
793.174	154.613
793.302	150.325
793.430	153.075
793.558	161.675
793.687	150.863
793.815	158.050
793.943	153.725
794.071	152.850
794.199	147.338
794.327	151.738
794.455	165.262
794.583	161.863
794.712	155.762
794.840	149.988
794.968	146.238
795.096	155.250
795.224	148.012
795.352	143.637
795.480	151.738
795.608	148.937
795.737	148.125
795.865	148.037
795.993	145.912
796.121	144.625
796.249	147.200
796.377	148.350
796.505	149.762
796.633	146.175
796.762	142.613
796.890	152.575
797.018	146.287
797.146	144.287
797.274	139.062
797.402	143.725
797.530	144.975
797.658	144.600
797.787	149.887
797.915	143.675
798.043	145.675
798.171	150.225
798.299	142.925
798.427	142.262
798.555	141.275
798.683	140.400
798.812	141.700
798.940	140.700
799.068	141.500
799.196	148.200
799.324	138.963
799.452	149.338
799.580	140.725
799.708	147.988
799.837	137.375
799.965	134.463
800.093	142.275
800.221	140.537
800.349	142.062
800.477	139.975
800.605	139.512
800.733	144.375
800.862	139.400
800.990	154.662
801.118	142.863
801.246	138.588
801.374	138.562
801.502	141.275
801.630	134.325
801.758	139.275
801.887	141.450
802.015	136.412
802.143	135.400
802.271	136.175
802.399	142.625
802.527	139.512
802.655	140.175
802.783	142.850
802.912	140.550
803.040	137.900
803.168	133.625
803.296	132.787
803.424	139.325
803.552	135.900
803.680	132.625
803.808	135.750
803.937	132.550
804.065	132.675
804.193	134.713
804.321	142.838
804.449	131.213
804.577	132.625
804.705	135.588
804.833	137.713
804.962	138.575
805.090	132.075
805.218	136.037
805.346	132.525
805.474	129.850
805.602	145.800
805.730	133.250
805.858	131.713
805.987	140.762
806.115	136.312
806.243	132.550
806.371	132.225
806.499	130.488
806.627	127.375
806.755	136.662
806.883	130.550
807.012	132.225
807.140	133.312
807.268	127.950
807.396	135.738
807.524	124.213
807.652	130.238
807.780	143.575
807.908	128.650
808.037	136.562
808.165	132.062
808.293	130.025
808.421	144.863
808.549	125.362
808.677	124.213
808.805	138.863
808.933	127.550
809.062	129.887
809.190	147.363
809.318	132.062
809.446	127.513
809.574	124.575
809.702	131.812
809.830	124.025
809.958	131.275
810.087	128.700
810.215	133.863
810.343	138.312
810.471	129.512
810.599	123.537
810.727	127.225
810.855	122.025
810.983	128.812
811.112	129.475
811.240	125.638
811.368	128.675
811.496	138.450
811.624	127.600
811.752	122.675
811.880	123.525
812.008	119.600
812.137	126.950
812.265	122.125
812.393	128.175
812.521	127.100
812.649	125.725
812.777	121.950
812.905	130.225
813.033	122.500
813.162	122.013
813.290	123.825
813.418	123.638
813.546	123.125
813.674	120.687
813.802	124.562
813.930	121.612
814.058	120.162
814.187	117.850
814.315	120.900
814.443	125.075
814.571	117.425
814.699	130.412
814.827	122.963
814.955	122.350
815.083	124.088
815.212	124.050
815.340	122.650
815.468	121.775
815.596	120.825
815.724	119.050
815.852	125.487
815.980	116.125
816.108	126.650
816.237	118.562
816.365	121.300
816.493	123.638
816.621	119.737
816.749	122.375
816.877	122.112
817.005	127.263
817.133	119.013
817.262	118.763
817.390	127.612
817.518	119.050
817.646	124.312
817.774	118.112
817.902	125.175
818.030	118.388
818.158	124.000
818.287	121.800
818.415	114.162
818.543	116.750
818.671	124.287
818.799	115.763
818.927	122.687
819.055	116.987
819.183	117.050
819.312	119.150
819.440	121.338
819.568	117.088
819.696	126.388
819.824	122.500
819.952	115.475
820.080	117.213
820.208	119.338
820.337	116.500
820.465	122.537
820.593	119.138
820.721	119.500
820.849	116.475
820.977	115.050
821.105	116.662
821.233	111.650
821.362	122.687
821.490	113.275
821.618	117.662
821.746	114.612
821.874	115.100
822.002	118.338
822.130	119.025
822.258	113.875
822.387	117.088
822.515	118.750
822.643	116.862
822.771	111.937
822.899	115.662
823.027	112.862
823.155	111.713
823.283	115.638
823.412	122.037
823.540	115.513
823.668	126.588
823.796	116.937
823.924	122.200
824.052	119.687
824.180	113.362
824.308	114.213
824.437	115.375
824.565	111.513
824.693	114.825
824.821	115.537
824.949	115.763
825.077	118.088
825.205	120.838
825.333	119.175
825.462	117.412
825.590	109.687
825.718	118.662
825.846	113.987
825.974	115.575
826.102	116.763
826.230	115.838
826.358	111.737
826.487	110.437
826.615	113.888
826.743	112.175
826.871	114.575
826.999	116.338
827.127	114.750
827.255	110.787
827.383	110.537
827.512	116.850
827.640	116.225
827.768	112.888
827.896	112.275
828.024	113.325
828.152	113.200
828.280	112.475
828.408	112.987
828.537	112.687
828.665	111.013
828.793	108.737
828.921	109.625
829.049	112.237
829.177	112.950
829.305	110.175
829.433	111.287
829.562	113.088
829.690	112.125
829.818	118.263
829.946	111.500
830.074	109.463
830.202	112.150
830.330	114.100
830.458	123.838
830.587	112.000
830.715	109.100
830.843	110.700
830.971	110.513
831.099	114.513
831.227	109.838
831.355	108.350
831.483	108.338
831.612	111.975
831.740	111.162
831.868	123.925
831.996	111.412
832.124	112.550
832.252	104.950
832.380	108.875
832.508	110.487
832.637	114.550
832.765	114.425
832.893	115.750
833.021	114.000
833.149	109.338
833.277	107.700
833.405	108.037
833.533	109.725
833.662	109.812
833.790	112.687
833.918	114.912
834.046	118.888
834.174	113.850
834.302	109.162
834.430	108.287
834.558	109.013
834.687	108.787
834.815	110.263
834.943	108.687
835.071	106.850
835.199	107.550
835.327	110.825
835.455	108.638
835.583	112.088
835.712	113.775
835.840	114.725
835.968	108.787
836.096	112.000
836.224	114.925
836.352	110.600
836.480	110.450
836.608	109.662
836.737	108.037
836.865	107.713
836.993	107.862
837.121	109.187
837.249	107.338
837.377	108.963
837.505	109.213
837.633	108.463
837.762	106.975
837.890	116.037
838.018	112.162
838.146	106.675
838.274	111.100
838.402	109.213
838.530	106.388
838.658	107.662
838.787	110.575
838.915	109.787
839.043	111.013
839.171	116.675
839.299	110.862
839.427	110.550
839.555	119.250
839.683	112.800
839.812	108.138
839.940	107.350
840.068	109.987
840.196	108.550
840.324	113.075
840.452	113.312
840.580	115.463
840.708	108.525
840.837	107.937
840.965	108.187
841.093	111.912
841.221	111.875
841.349	114.588
841.477	111.175
841.605	110.825
841.733	108.475
841.862	109.763
841.990	109.375
842.118	106.912
842.246	105.125
842.374	104.287
842.502	108.825
842.630	110.013
842.758	109.537
842.887	108.700
843.015	109.162
843.143	111.888
843.271	110.562
843.399	112.987
843.527	109.450
843.655	107.100
843.783	106.537
843.912	105.187
844.040	110.588
844.168	114.862
844.296	110.963
844.424	110.312
844.552	111.025
844.680	109.388
844.808	111.713
844.937	108.912
845.065	106.000
845.193	110.725
845.321	108.600
845.449	106.075
845.577	103.963
845.705	109.125
845.833	109.150
845.962	107.638
846.090	105.925
846.218	107.437
846.346	107.300
846.474	107.588
846.602	108.150
846.730	106.713
846.858	105.175
846.987	106.112
847.115	108.138
847.243	109.775
847.371	111.963
847.499	106.800
847.627	105.200
847.755	105.825
847.883	108.412
848.012	112.525
848.140	108.662
848.268	107.025
848.396	108.550
848.524	107.987
848.652	108.237
848.780	105.525
848.908	108.525
849.037	107.725
849.165	107.700
849.293	109.325
849.421	111.500
849.549	109.537
849.677	108.200
849.805	113.625
849.933	112.575
850.062	108.675
850.190	108.025
850.318	108.075
850.446	108.862
850.574	106.287
850.702	104.388
850.830	107.362
850.958	107.425
851.087	105.725
851.215	113.737
851.343	107.850
851.471	108.763
851.599	107.213
851.727	108.987
851.855	107.700
851.983	111.513
852.112	111.200
852.240	111.763
852.368	106.713
852.496	105.475
852.624	107.150
852.752	107.550
852.880	107.287
853.008	112.550
853.137	108.000
853.265	106.437
853.393	109.112
853.521	110.013
853.649	110.500
853.777	107.088
853.905	110.537
854.033	107.513
854.162	106.925
854.290	106.025
854.418	104.875
854.546	106.263
854.674	108.487
854.802	106.037
854.930	106.625
855.058	103.800
855.187	102.425
855.315	102.250
855.443	104.625
855.571	105.463
855.699	106.588
855.827	109.150
855.955	106.338
856.083	107.412
856.212	106.525
856.340	105.787
856.468	111.050
856.596	108.987
856.724	108.350
856.852	106.537
856.980	106.437
857.108	107.088
857.237	107.287
857.365	107.662
857.493	105.650
857.621	105.425
857.749	107.287
857.877	110.162
858.005	110.463
858.133	108.937
858.262	107.187
858.390	104.487
858.518	103.513
858.646	107.687
858.774	105.900
858.902	107.725
859.030	107.463
859.158	105.275
859.287	108.450
859.415	107.675
859.543	106.437
859.671	108.525
859.799	110.263
859.927	106.687
860.055	106.950
860.183	103.850
860.312	106.838
860.440	105.213
860.568	111.800
860.696	106.612
860.824	116.162
860.952	105.537
861.080	105.750
861.208	106.912
861.337	109.312
861.465	107.775
861.593	112.737
861.721	106.950
861.849	106.150
861.977	106.375
862.105	107.562
862.233	103.888
862.362	108.575
862.490	107.888
862.618	104.500
862.746	105.812
862.874	105.787
863.002	106.812
863.130	112.588
863.258	108.350
863.387	109.650
863.515	106.987
863.643	105.112
863.771	107.000
863.899	106.725
864.027	106.050
864.155	107.412
864.283	106.187
864.412	107.450
864.540	107.187
864.668	106.312
864.796	106.350
864.924	105.687
865.052	114.388
865.180	106.575
865.308	103.612
865.437	103.662
865.565	108.787
865.693	106.150
865.821	106.062
865.949	104.263
866.077	104.237
866.205	103.925
866.333	103.725
866.462	105.937
866.590	105.525
866.718	106.062
866.846	105.900
866.974	106.925
867.102	109.237
867.230	113.375
867.358	106.737
867.487	108.600
867.615	105.875
867.743	105.763
867.871	108.963
867.999	106.287
868.127	105.787
868.255	115.625
868.383	110.775
868.512	105.237
868.640	106.037
868.768	105.687
868.896	104.937
869.024	108.263
869.152	113.388
869.280	106.787
869.408	108.275
869.537	105.300
869.665	105.200
869.793	103.975
869.921	110.100
870.049	110.662
870.177	107.625
870.305	120.025
870.433	107.963
870.562	104.237
870.690	105.000
870.818	105.037
870.946	106.400
871.074	104.062
871.202	105.888
871.330	104.350
871.458	104.775
871.587	104.950
871.715	104.213
871.843	106.200
871.971	108.325
872.099	108.187
872.227	107.075
872.355	107.513
872.483	105.388
872.612	108.125
872.740	107.850
872.868	104.237
872.996	105.763
873.124	107.400
873.252	108.687
873.380	105.062
873.508	106.150
873.637	106.787
873.765	109.187
873.893	109.200
874.021	106.638
874.149	106.312
874.277	104.950
874.405	113.612
874.533	107.612
874.662	325.587
874.790	105.812
874.918	110.075
875.046	107.687
875.174	107.687
875.302	103.838
875.430	105.662
875.558	108.662
875.687	110.912
875.815	108.013
875.943	107.800
876.071	109.925
876.199	107.925
876.327	110.000
876.455	106.987
876.583	106.000
876.712	107.300
876.840	107.662
876.968	107.662
877.096	105.862
877.224	105.338
877.352	105.200
877.480	104.675
877.608	107.612
877.737	107.700
877.865	105.975
877.993	109.812
878.121	107.263
878.249	110.287
878.377	106.987
878.505	104.650
878.633	104.987
878.762	105.562
878.890	104.888
879.018	105.612
879.146	108.425
879.274	106.175
879.402	108.213
879.530	106.875
879.658	108.937
879.787	109.338
879.915	106.687
880.043	106.200
880.171	105.463
880.299	105.737
880.427	106.912
880.555	109.675
880.683	111.525
880.812	107.325
880.940	106.925
881.068	109.638
881.196	107.513
881.324	107.112
881.452	105.537
881.580	109.025
881.708	110.487
881.837	105.513
881.965	106.300
882.093	105.775
882.221	104.687
882.349	111.325
882.477	108.475
882.605	111.862
882.733	106.812
882.862	105.200
882.990	103.850
883.118	105.437
883.246	116.237
883.374	107.150
883.502	104.338
883.630	104.125
883.758	105.900
883.887	104.562
884.015	105.763
884.143	106.750
884.271	106.388
884.399	105.200
884.527	109.025
884.655	108.487
884.783	106.250
884.912	105.675
885.040	105.500
885.168	105.662
885.296	104.900
885.424	107.062
885.552	109.638
885.680	103.987
885.808	104.000
885.937	107.062
886.065	106.362
886.193	105.812
886.321	104.263
886.449	106.537
886.577	107.037
886.705	104.338
886.833	104.800
886.962	104.912
887.090	108.463
887.218	105.350
887.346	106.875
887.474	112.763
887.602	109.787
887.730	106.875
887.858	105.912
887.987	107.888
888.115	112.875
888.243	110.400
888.371	110.425
888.499	107.425
888.627	106.687
888.755	107.487
888.883	107.338
889.012	106.388
889.140	105.513
889.268	111.662
889.396	112.725
889.524	109.275
889.652	106.487
889.780	106.062
889.908	106.550
890.037	107.875
890.165	105.838
890.293	108.750
890.421	106.662
890.549	109.437
890.677	110.437
890.805	106.675
890.933	106.950
891.062	106.250
891.190	107.612
891.318	108.775
891.446	107.925
891.574	107.100
891.702	105.500
891.830	105.338
891.958	109.625
892.087	109.763
892.215	105.575
892.343	108.850
892.471	107.525
892.599	108.112
892.727	111.737
892.855	108.237
892.983	108.763
893.112	106.700
893.240	108.650
893.368	109.162
893.496	108.975
893.624	106.638
893.752	108.588
893.880	110.075
894.008	107.975
894.137	107.350
894.265	111.625
894.393	109.300
894.521	111.812
894.649	108.213
894.777	105.412
894.905	106.963
895.033	114.412
895.162	109.513
895.290	112.750
895.418	109.638
895.546	112.862
895.674	114.088
895.802	107.400
895.930	107.612
896.058	105.412
896.187	104.525
896.315	106.112
896.443	111.987
896.571	110.925
896.699	106.900
896.827	107.350
896.955	109.375
897.083	107.838
897.212	108.437
897.340	105.562
897.468	107.575
897.596	108.750
897.724	105.888
897.852	115.250
897.980	110.325
898.108	107.075
898.237	106.912
898.365	105.287
898.493	108.500
898.621	108.550
898.749	106.125
898.877	106.875
899.005	108.237
899.133	104.925
899.262	105.175
899.390	107.675
899.518	107.550
899.646	108.912
899.774	112.338
899.902	115.862
900.030	108.050
900.158	107.312
900.287	109.388
900.415	107.213
900.543	106.737
900.671	110.763
900.799	109.088
900.927	109.600
901.055	107.325
901.183	107.800
901.312	109.150
901.440	113.325
901.568	110.763
901.696	108.100
901.824	107.987
901.952	111.500
902.080	110.475
902.208	107.963
902.337	109.088
902.465	107.975
902.593	111.812
902.721	108.225
902.849	109.763
902.977	110.075
903.105	117.213
903.233	112.825
903.362	110.650
903.490	111.287
903.618	108.713
903.746	114.388
903.874	107.862
904.002	105.600
904.130	110.737
904.258	110.000
904.387	108.550
904.515	107.088
904.643	106.850
904.771	107.437
904.899	107.900
905.027	108.775
905.155	107.862
905.283	110.575
905.412	111.388
905.540	109.687
905.668	105.025
905.796	107.750
905.924	107.375
906.052	110.400
906.180	109.475
906.308	115.225
906.437	113.912
906.565	115.287
906.693	109.812
906.821	105.375
906.949	108.987
907.077	107.900
907.205	112.912
907.333	109.550
907.462	109.888
907.590	110.213
907.718	111.138
907.846	109.375
907.974	110.338
908.102	109.338
908.230	110.000
908.358	114.737
908.487	112.050
908.615	112.612
908.743	111.338
908.871	123.037
908.999	113.700
909.127	115.675
909.255	107.537
909.383	107.850
909.512	110.812
909.640	109.937
909.768	113.162
909.896	121.237
910.024	116.287
910.152	115.787
910.280	122.638
910.408	112.237
910.537	122.400
910.665	112.338
910.793	113.912
910.921	115.263
911.049	112.588
911.177	110.175
911.305	112.213
911.433	111.675
911.562	110.650
911.690	107.362
911.818	120.100
911.946	120.588
912.074	113.687
912.202	113.888
912.330	112.775
912.458	111.213
912.587	115.162
912.715	112.912
912.843	109.975
912.971	114.537
913.099	115.400
913.227	116.925
913.355	115.150
913.483	111.787
913.612	113.400
913.740	127.713
913.868	116.088
