sample1_PP_at_750.00nm_cut_at_1008.00Y_01.dat
15.05.2023
10:53:53
cut middle at Y: 1008.00
top cursor: 1048 down cursor: 968 mean of: 80 lines , 2560 datapoints
wavelength(nm)	intensity[arb. units]
585.996	2522.925
586.124	2461.387
586.252	2453.838
586.380	2477.062
586.508	2494.588
586.637	2470.537
586.765	2494.075
586.893	2501.412
587.021	2538.588
587.149	2588.012
587.277	2535.525
587.405	2621.562
587.533	2543.075
587.662	2664.963
587.790	2657.025
587.918	2558.325
588.046	2595.975
588.174	2573.800
588.302	2625.287
588.430	2627.738
588.558	2612.100
588.687	2638.300
588.815	2617.200
588.943	2638.512
589.071	2653.500
589.199	2676.812
589.327	2641.925
589.455	2643.613
589.583	2730.875
589.712	2699.037
589.840	2661.350
589.968	2668.075
590.096	2658.713
590.224	2718.963
590.352	2682.412
590.480	2741.437
590.608	2717.175
590.737	2789.825
590.865	2799.812
590.993	2725.925
591.121	2743.925
591.249	2772.937
591.377	2750.012
591.505	2780.675
591.633	2838.488
591.762	2820.175
591.890	2939.075
592.018	2775.475
592.146	2793.375
592.274	2827.787
592.402	2812.588
592.530	2822.600
592.658	3013.713
592.787	2864.812
592.915	2992.637
593.043	2853.050
593.171	2876.562
593.299	2885.537
593.427	2899.113
593.555	2897.450
593.683	2885.300
593.812	2923.588
593.940	2934.838
594.068	2936.012
594.196	2957.975
594.324	2969.437
594.452	2977.775
594.580	2986.637
594.708	3012.412
594.837	3000.725
594.965	3085.150
595.093	3059.363
595.221	3102.775
595.349	3200.887
595.477	3079.850
595.605	3083.550
595.733	3119.662
595.862	3292.387
595.990	3129.950
596.118	3164.350
596.246	3330.187
596.374	3207.350
596.502	3171.525
596.630	3198.150
596.758	3191.213
596.887	3215.600
597.015	3202.425
597.143	3229.238
597.271	3214.675
597.399	3205.600
597.527	3242.963
597.655	3244.937
597.783	3214.238
597.912	3241.825
598.040	3253.500
598.168	3322.800
598.296	3265.187
598.424	3282.887
598.552	3305.700
598.680	3278.937
598.808	3395.600
598.937	3286.838
599.065	3280.450
599.193	3406.550
599.321	3402.463
599.449	3311.350
599.577	3303.375
599.705	3380.463
599.833	3298.363
599.962	3303.338
600.090	3372.963
600.218	3330.562
600.346	3423.200
600.474	3332.187
600.602	3288.375
600.730	3340.488
600.858	3315.850
600.987	3497.088
601.115	3336.437
601.243	3370.213
601.371	3368.225
601.499	3370.637
601.627	3399.875
601.755	3401.113
601.883	3425.238
602.012	3438.800
602.140	3389.662
602.268	3497.225
602.396	3451.588
602.524	3472.363
602.652	3451.463
602.780	3449.800
602.908	3476.750
603.037	3554.050
603.165	3506.687
603.293	3530.100
603.421	3538.075
603.549	3558.988
603.677	3628.025
603.805	3585.175
603.933	3601.725
604.062	3715.075
604.190	3639.375
604.318	3607.350
604.446	3628.825
604.574	3666.287
604.702	3671.812
604.830	3683.187
604.958	3706.850
605.087	3697.575
605.215	3727.725
605.343	3734.150
605.471	3757.912
605.599	3762.512
605.727	3749.787
605.855	3780.000
605.983	3774.925
606.112	3769.025
606.240	3791.537
606.368	3810.700
606.496	3996.488
606.624	3785.300
606.752	3863.100
606.880	3987.787
607.008	4068.637
607.137	4013.738
607.265	3830.287
607.393	3868.575
607.521	3956.062
607.649	3867.262
607.777	3901.775
607.905	3927.412
608.033	3913.375
608.162	3856.637
608.290	3968.525
608.418	3885.575
608.546	3921.713
608.674	3935.562
608.802	3846.625
608.930	3857.887
609.058	3864.025
609.187	3889.963
609.315	3933.062
609.443	3841.875
609.571	3949.775
609.699	3868.537
609.827	3895.662
609.955	3920.637
610.083	3857.125
610.212	3868.113
610.340	3842.925
610.468	3975.175
610.596	3942.512
610.724	3926.100
610.852	3872.075
610.980	3896.463
611.108	3954.213
611.237	3871.213
611.365	3863.912
611.493	3867.025
611.621	3876.650
611.749	3892.850
611.877	3896.775
612.005	3901.912
612.133	3918.838
612.262	3881.838
612.390	3882.412
612.518	3945.537
612.646	4028.488
612.774	3915.700
612.902	3909.887
613.030	3915.875
613.158	4021.275
613.287	3965.088
613.415	3891.650
613.543	3920.725
613.671	3927.500
613.799	3962.175
613.927	3980.312
614.055	3974.450
614.183	4093.437
614.312	3957.100
614.440	4102.150
614.568	3967.113
614.696	3969.387
614.824	4168.937
614.952	4023.113
615.080	3965.075
615.208	4042.850
615.337	4020.700
615.465	4015.787
615.593	4034.787
615.721	4092.125
615.849	4086.162
615.977	4079.988
616.105	4096.625
616.233	4066.950
616.362	4121.425
616.490	4048.637
616.618	4020.575
616.746	4113.788
616.874	4155.637
617.002	4088.762
617.130	4136.712
617.258	4230.712
617.387	4119.550
617.515	4060.238
617.643	4092.725
617.771	4135.050
617.899	4158.262
618.027	4068.350
618.155	4203.150
618.283	4049.088
618.412	4104.275
618.540	4149.850
618.668	4117.800
618.796	4084.525
618.924	4202.450
619.052	4086.975
619.180	4048.625
619.308	4097.288
619.437	4098.587
619.565	4084.300
619.693	4036.250
619.821	4071.675
619.949	4040.088
620.077	4094.375
620.205	4092.187
620.333	4082.025
620.462	4087.000
620.590	4099.750
620.718	4005.687
620.846	4145.150
620.974	4140.962
621.102	4076.512
621.230	4011.738
621.358	4113.712
621.487	4002.287
621.615	4050.175
621.743	4042.175
621.871	4015.500
621.999	4097.200
622.127	4026.525
622.255	4017.387
622.383	4011.200
622.512	4021.437
622.640	4151.425
622.768	3947.425
622.896	3980.988
623.024	3979.213
623.152	4062.713
623.280	4045.387
623.408	3942.687
623.537	3982.613
623.665	3941.463
623.793	3978.887
623.921	3945.600
624.049	3942.950
624.177	3947.887
624.305	3966.950
624.433	3976.725
624.562	3934.562
624.690	3959.575
624.818	3977.512
624.946	4110.250
625.074	3968.213
625.202	3887.738
625.330	3876.625
625.458	3939.575
625.587	3897.750
625.715	3969.562
625.843	4026.600
625.971	3909.225
626.099	3886.575
626.227	3916.387
626.355	3862.162
626.483	3963.887
626.612	3836.637
626.740	3842.325
626.868	3882.700
626.996	3807.037
627.124	3799.562
627.252	3813.338
627.380	3862.675
627.508	3819.225
627.637	3803.500
627.765	3836.200
627.893	3819.687
628.021	3779.550
628.149	3813.762
628.277	3821.062
628.405	3853.825
628.533	3763.550
628.662	3804.113
628.790	3764.225
628.918	3735.450
629.046	3751.012
629.174	3756.250
629.302	3859.525
629.430	3742.937
629.558	3742.988
629.687	3749.113
629.815	3738.238
629.943	3786.475
630.071	3759.500
630.199	3771.937
630.327	3746.838
630.455	3698.025
630.583	3803.150
630.712	3745.637
630.840	3764.275
630.968	3761.650
631.096	3701.637
631.224	3708.762
631.352	3702.500
631.480	3747.787
631.608	3711.250
631.737	3798.062
631.865	3872.150
631.993	3696.800
632.121	3820.975
632.249	3791.600
632.377	3747.088
632.505	3730.762
632.633	3637.213
632.762	3731.700
632.890	3790.725
633.018	3644.012
633.146	3709.137
633.274	3687.025
633.402	3679.975
633.530	3634.512
633.658	3791.137
633.787	3605.550
633.915	3688.750
634.043	3620.625
634.171	3618.162
634.299	3612.213
634.427	3698.875
634.555	3630.912
634.683	3584.025
634.812	3558.037
634.940	3577.838
635.068	3517.300
635.196	3563.975
635.324	3526.350
635.452	3601.137
635.580	3491.637
635.708	3488.312
635.837	3540.000
635.965	3483.137
636.093	3478.838
636.221	3436.675
636.349	3521.000
636.477	3386.000
636.605	3585.050
636.733	3364.988
636.862	3347.738
636.990	3378.187
637.118	3438.887
637.246	3389.975
637.374	3334.025
637.502	3322.075
637.630	3285.162
637.758	3296.187
637.887	3268.488
638.015	3256.988
638.143	3246.088
638.271	3256.150
638.399	3240.875
638.527	3214.600
638.655	3189.537
638.783	3342.775
638.912	3236.537
639.040	3213.963
639.168	3208.900
639.296	3158.700
639.424	3290.700
639.552	3154.650
639.680	3157.775
639.808	3167.925
639.937	3100.838
640.065	3111.775
640.193	3175.588
640.321	3103.588
640.449	3117.863
640.577	3190.600
640.705	3098.400
640.833	3199.488
640.962	3065.287
641.090	3060.225
641.218	3031.325
641.346	3059.137
641.474	3056.725
641.602	3016.100
641.730	3005.925
641.858	3003.287
641.987	3041.450
642.115	3004.900
642.243	3037.287
642.371	3004.113
642.499	2991.562
642.627	3024.925
642.755	3034.588
642.883	3043.500
643.012	2984.562
643.140	2935.375
643.268	2955.812
643.396	2944.988
643.524	3044.812
643.652	2966.725
643.780	2937.037
643.908	2934.325
644.037	3034.000
644.165	2919.475
644.293	2908.550
644.421	2895.325
644.549	2949.450
644.677	2891.000
644.805	2913.450
644.933	2856.613
645.062	2869.425
645.190	2880.425
645.318	2938.537
645.446	2873.675
645.574	2900.625
645.702	2842.812
645.830	3018.900
645.958	2825.675
646.087	2984.412
646.215	2788.662
646.343	2974.225
646.471	2836.175
646.599	2856.113
646.727	2799.312
646.855	2785.412
646.983	2837.812
647.112	2756.800
647.240	2917.762
647.368	2748.275
647.496	2795.262
647.624	2721.575
647.752	2703.162
647.880	2729.988
648.008	2712.537
648.137	2691.325
648.265	2680.912
648.393	2674.725
648.521	2687.775
648.649	2677.425
648.777	2669.562
648.905	2653.012
649.033	2632.738
649.162	2618.812
649.290	2619.738
649.418	2624.550
649.546	2623.850
649.674	2668.825
649.802	2603.262
649.930	2710.000
650.058	2540.363
650.187	2569.375
650.315	2527.175
650.443	2592.037
650.571	2539.762
650.699	2509.863
650.827	2489.637
650.955	2502.600
651.083	2490.975
651.212	2516.213
651.340	2539.175
651.468	2472.512
651.596	2460.150
651.724	2453.925
651.852	2442.588
651.980	2414.150
652.108	2476.950
652.237	2429.475
652.365	2446.387
652.493	2410.113
652.621	2401.662
652.749	2423.600
652.877	2383.375
653.005	2380.387
653.133	2376.125
653.262	2381.825
653.390	2369.287
653.518	2365.963
653.646	2335.500
653.774	2371.600
653.902	2352.687
654.030	2336.275
654.158	2313.000
654.287	2322.687
654.415	2307.975
654.543	2296.863
654.671	2284.588
654.799	2272.375
654.927	2273.687
655.055	2254.075
655.183	2246.988
655.312	2235.012
655.440	2246.900
655.568	2235.100
655.696	2218.463
655.824	2223.850
655.952	2224.400
656.080	2181.812
656.208	2207.075
656.337	2178.325
656.465	2187.088
656.593	2178.387
656.721	2172.800
656.849	2176.625
656.977	2152.287
657.105	2133.000
657.233	2118.437
657.362	2136.713
657.490	2124.738
657.618	2126.838
657.746	2109.262
657.874	2079.012
658.002	2107.800
658.130	2081.775
658.258	2079.775
658.387	2091.687
658.515	2057.525
658.643	2061.562
658.771	2068.750
658.899	2056.912
659.027	2049.387
659.155	2037.237
659.283	2010.375
659.412	1986.600
659.540	2013.112
659.668	2015.650
659.796	1998.013
659.924	2006.975
660.052	2004.963
660.180	1966.362
660.308	1987.900
660.437	1950.888
660.565	1953.338
660.693	1940.450
660.821	1944.825
660.949	1941.000
661.077	1931.000
661.205	1932.312
661.333	1914.187
661.462	1933.062
661.590	1938.638
661.718	1901.237
661.846	1892.700
661.974	1895.612
662.102	1896.612
662.230	1873.412
662.358	1856.425
662.487	1865.800
662.615	1857.275
662.743	1874.375
662.871	1855.237
662.999	1849.825
663.127	1829.150
663.255	1824.525
663.383	1847.662
663.512	1835.400
663.640	1821.562
663.768	1796.825
663.896	1815.450
664.024	1794.675
664.152	1806.237
664.280	1796.662
664.408	1783.088
664.537	1781.600
664.665	1772.600
664.793	1759.625
664.921	1738.125
665.049	1751.437
665.177	1771.750
665.305	1734.200
665.433	1729.862
665.562	1736.612
665.690	1728.362
665.818	1727.300
665.946	1727.388
666.074	1708.138
666.202	1696.050
666.330	1696.463
666.458	1697.888
666.587	1682.812
666.715	1684.588
666.843	1685.300
666.971	1671.975
667.099	1673.525
667.227	1678.763
667.355	1648.850
667.483	1645.775
667.612	1648.537
667.740	1650.150
667.868	1653.625
667.996	1638.350
668.124	1632.650
668.252	1622.200
668.380	1603.200
668.508	1626.638
668.637	1603.787
668.765	1619.138
668.893	1604.437
669.021	1590.937
669.149	1580.713
669.277	1568.225
669.405	1575.013
669.533	1589.400
669.662	1574.537
669.790	1544.338
669.918	1554.112
670.046	1561.325
670.174	1538.325
670.302	1544.662
670.430	1514.000
670.558	1527.162
670.687	1520.562
670.815	1507.737
670.943	1509.725
671.071	1498.675
671.199	1490.200
671.327	1495.763
671.455	1484.662
671.583	1478.900
671.712	1474.862
671.840	1467.275
671.968	1457.600
672.096	1464.175
672.224	1453.963
672.352	1445.075
672.480	1449.150
672.608	1433.375
672.737	1435.537
672.865	1415.013
672.993	1427.112
673.121	1422.638
673.249	1404.075
673.377	1394.013
673.505	1396.112
673.633	1377.463
673.762	1387.237
673.890	1386.025
674.018	1383.013
674.146	1357.250
674.274	1379.775
674.402	1357.638
674.530	1359.900
674.658	1352.850
674.787	1330.400
674.915	1330.463
675.043	1325.925
675.171	1335.325
675.299	1328.037
675.427	1319.475
675.555	1301.338
675.683	1317.750
675.812	1287.513
675.940	1275.912
676.068	1297.763
676.196	1278.713
676.324	1268.463
676.452	1269.312
676.580	1255.937
676.708	1251.388
676.837	1271.787
676.965	1240.362
677.093	1245.225
677.221	1240.612
677.349	1231.275
677.477	1228.463
677.605	1209.450
677.733	1228.437
677.862	1205.162
677.990	1212.787
678.118	1192.550
678.246	1193.513
678.374	1173.600
678.502	1180.900
678.630	1168.300
678.758	1168.200
678.887	1163.963
679.015	1172.025
679.143	1143.300
679.271	1152.025
679.399	1146.912
679.527	1140.575
679.655	1147.687
679.783	1134.500
679.912	1135.388
680.040	1135.213
680.168	1122.700
680.296	1109.700
680.424	1121.475
680.552	1098.213
680.680	1107.550
680.808	1096.888
680.937	1099.275
681.065	1104.537
681.193	1090.138
681.321	1085.275
681.449	1087.687
681.577	1080.987
681.705	1072.463
681.833	1055.838
681.962	1058.425
682.090	1070.775
682.218	1064.325
682.346	1039.362
682.474	1049.025
682.602	1044.463
682.730	1042.300
682.858	1031.400
682.987	1040.812
683.115	1034.150
683.243	1020.375
683.371	1024.513
683.499	1012.225
683.627	1032.287
683.755	1013.500
683.883	1015.075
684.012	1007.237
684.140	994.788
684.268	1010.575
684.396	1004.062
684.524	1002.800
684.652	1001.150
684.780	995.562
684.908	982.138
685.037	987.750
685.165	986.112
685.293	992.725
685.421	968.312
685.549	960.288
685.677	961.013
685.805	958.200
685.933	961.062
686.062	946.950
686.190	953.475
686.318	946.700
686.446	962.337
686.574	953.388
686.702	945.212
686.830	935.513
686.958	922.050
687.087	924.450
687.215	916.725
687.343	925.663
687.471	924.125
687.599	908.775
687.727	904.250
687.855	918.212
687.983	910.050
688.112	911.538
688.240	894.900
688.368	902.775
688.496	898.937
688.624	886.987
688.752	887.112
688.880	887.400
689.008	876.425
689.137	875.500
689.265	875.800
689.393	860.712
689.521	875.388
689.649	863.275
689.777	861.437
689.905	859.638
690.033	860.150
690.162	853.062
690.290	849.087
690.418	850.350
690.546	855.513
690.674	847.700
690.802	840.475
690.930	826.975
691.058	829.562
691.187	824.800
691.315	831.275
691.443	819.800
691.571	812.125
691.699	808.400
691.827	810.575
691.955	822.950
692.083	813.000
692.212	799.812
692.340	812.913
692.468	798.112
692.596	784.250
692.724	783.288
692.852	787.250
692.980	791.062
693.108	781.275
693.237	776.575
693.365	772.538
693.493	771.950
693.621	766.100
693.749	756.300
693.877	759.587
694.005	752.513
694.133	753.763
694.262	740.525
694.390	744.638
694.518	737.587
694.646	739.937
694.774	745.087
694.902	727.375
695.030	743.087
695.158	717.575
695.287	729.437
695.415	723.788
695.543	723.487
695.671	714.950
695.799	713.925
695.927	710.763
696.055	710.000
696.183	707.200
696.312	702.425
696.440	699.312
696.568	691.050
696.696	693.763
696.824	689.850
696.952	688.737
697.080	678.413
697.208	687.925
697.337	675.538
697.465	672.888
697.593	677.837
697.721	672.950
697.849	657.025
697.977	661.425
698.105	668.550
698.233	657.013
698.362	652.650
698.490	657.650
698.618	648.725
698.746	648.612
698.874	637.500
699.002	646.625
699.130	638.788
699.258	643.312
699.387	629.225
699.515	633.100
699.643	634.375
699.771	638.413
699.899	615.888
700.027	623.788
700.155	622.263
700.283	631.175
700.412	618.500
700.540	610.550
700.668	600.925
700.796	612.950
700.924	607.862
701.052	608.913
701.180	605.925
701.308	600.062
701.437	597.650
701.565	598.812
701.693	589.763
701.821	600.225
701.949	607.138
702.077	577.312
702.205	585.275
702.333	576.025
702.462	578.462
702.590	574.538
702.718	571.800
702.846	565.250
702.974	580.550
703.102	564.150
703.230	572.650
703.358	550.500
703.487	555.413
703.615	558.925
703.743	550.538
703.871	553.100
703.999	544.650
704.127	542.312
704.255	536.087
704.383	539.300
704.512	535.425
704.640	539.913
704.768	529.312
704.896	530.825
705.024	532.812
705.152	533.050
705.280	524.987
705.408	520.700
705.537	519.538
705.665	521.038
705.793	513.150
705.921	508.913
706.049	509.825
706.177	512.513
706.305	502.337
706.433	505.337
706.562	499.087
706.690	497.875
706.818	497.238
706.946	497.825
707.074	486.525
707.202	489.050
707.330	488.175
707.458	490.837
707.587	479.288
707.715	484.613
707.843	474.750
707.971	489.025
708.099	479.950
708.227	473.238
708.355	471.363
708.483	471.288
708.612	466.900
708.740	467.425
708.868	468.387
708.996	462.575
709.124	469.100
709.252	458.775
709.380	467.625
709.508	451.012
709.637	456.937
709.765	457.150
709.893	458.238
710.021	459.150
710.149	449.200
710.277	449.913
710.405	446.312
710.533	441.275
710.662	435.275
710.790	440.550
710.918	435.500
711.046	432.950
711.174	439.350
711.302	434.525
711.430	433.887
711.558	435.050
711.687	424.887
711.815	424.512
711.943	428.363
712.071	420.675
712.199	423.350
712.327	429.875
712.455	417.725
712.583	416.613
712.712	425.488
712.840	418.675
712.968	413.700
713.096	416.350
713.224	404.137
713.352	407.650
713.480	401.038
713.608	402.525
713.737	397.488
713.865	404.988
713.993	402.837
714.121	397.875
714.249	405.875
714.377	394.187
714.505	410.050
714.633	394.450
714.762	392.863
714.890	388.462
715.018	398.125
715.146	386.437
715.274	388.075
715.402	381.075
715.530	388.150
715.658	384.913
715.787	388.575
715.915	375.288
716.043	375.937
716.171	379.788
716.299	385.450
716.427	374.250
716.555	380.300
716.683	381.988
716.812	372.875
716.940	375.663
717.068	365.012
717.196	362.288
717.324	368.812
717.452	363.225
717.580	364.762
717.708	364.587
717.837	369.087
717.965	369.363
718.093	357.762
718.221	356.875
718.349	357.675
718.477	353.650
718.605	350.950
718.733	355.312
718.862	343.425
718.990	345.937
719.118	349.350
719.246	345.650
719.374	343.175
719.502	350.675
719.630	362.437
719.758	342.788
719.887	343.125
720.015	346.475
720.143	338.200
720.271	339.062
720.399	336.587
720.527	344.875
720.655	333.075
720.783	333.738
720.912	340.462
721.040	338.087
721.168	334.012
721.296	331.050
721.424	330.275
721.552	325.988
721.680	323.225
721.808	334.950
721.937	330.163
722.065	316.437
722.193	316.275
722.321	321.413
722.449	319.238
722.577	322.887
722.705	313.000
722.833	314.625
722.962	319.625
723.090	301.587
723.218	312.250
723.346	307.738
723.474	310.350
723.602	311.450
723.730	302.663
723.858	314.462
723.987	308.600
724.115	307.187
724.243	301.637
724.371	305.225
724.499	306.025
724.627	301.312
724.755	302.712
724.883	304.050
725.012	301.775
725.140	296.000
725.268	302.812
725.396	296.738
725.524	289.925
725.652	295.150
725.780	289.738
725.908	293.400
726.037	289.475
726.165	283.337
726.293	282.575
726.421	283.337
726.549	297.050
726.677	289.863
726.805	283.350
726.933	291.600
727.062	279.650
727.190	278.950
727.318	280.012
727.446	281.413
727.574	280.863
727.702	277.337
727.830	277.137
727.958	281.300
728.087	275.200
728.215	275.738
728.343	270.687
728.471	275.150
728.599	269.600
728.727	271.775
728.855	270.538
728.983	271.038
729.112	272.562
729.240	271.400
729.368	267.663
729.496	274.163
729.624	273.562
729.752	263.762
729.880	261.762
730.008	267.712
730.137	261.075
730.265	267.462
730.393	260.962
730.521	257.850
730.649	266.462
730.777	262.262
730.905	259.288
731.033	264.337
731.162	256.437
731.290	263.038
731.418	257.025
731.546	276.700
731.674	250.012
731.802	253.500
731.930	255.175
732.058	258.413
732.187	254.425
732.315	249.463
732.443	257.087
732.571	245.838
732.699	248.300
732.827	249.050
732.955	244.750
733.083	243.287
733.212	244.475
733.340	244.150
733.468	242.175
733.596	244.575
733.724	237.187
733.852	241.750
733.980	243.950
734.108	244.175
734.237	249.775
734.365	237.950
734.493	246.300
734.621	239.062
734.749	241.625
734.877	238.200
735.005	238.963
735.133	235.088
735.262	235.387
735.390	235.713
735.518	234.700
735.646	233.613
735.774	233.562
735.902	234.213
736.030	235.287
736.158	245.137
736.287	231.187
736.415	233.613
736.543	231.762
736.671	228.262
736.799	226.800
736.927	234.375
737.055	224.325
737.183	225.287
737.312	230.250
737.440	235.713
737.568	239.963
737.696	225.725
737.824	222.725
737.952	237.588
738.080	227.287
738.208	228.687
738.337	221.238
738.465	231.825
738.593	219.312
738.721	214.400
738.849	221.625
738.977	226.475
739.105	219.775
739.233	223.750
739.362	214.963
739.490	214.262
739.618	215.287
739.746	217.338
739.874	226.037
740.002	214.500
740.130	211.238
740.258	220.787
740.387	217.800
740.515	209.125
740.643	217.325
740.771	223.863
740.899	213.500
741.027	209.575
741.155	212.062
741.283	208.000
741.412	210.387
741.540	209.650
741.668	207.738
741.796	209.238
741.924	214.812
742.052	212.250
742.180	207.850
742.308	206.687
742.437	209.613
742.565	214.125
742.693	210.262
742.821	205.213
742.949	205.512
743.077	207.825
743.205	203.687
743.333	205.287
743.462	206.525
743.590	206.575
743.718	201.762
743.846	202.600
743.974	200.650
744.102	195.925
744.230	202.875
744.358	196.950
744.487	209.775
744.615	197.575
744.743	202.650
744.871	192.262
744.999	200.988
745.127	196.613
745.255	192.463
745.383	195.600
745.512	198.175
745.640	196.437
745.768	196.225
745.896	197.387
746.024	195.775
746.152	186.850
746.280	190.000
746.408	200.062
746.537	200.113
746.665	199.812
746.793	194.437
746.921	191.275
747.049	188.775
747.177	195.137
747.305	191.838
747.433	192.125
747.562	184.025
747.690	186.988
747.818	186.800
747.946	188.925
748.074	200.800
748.202	189.100
748.330	182.475
748.458	191.562
748.587	189.575
748.715	183.225
748.843	186.450
748.971	183.162
749.099	182.787
749.227	185.312
749.355	179.012
749.483	181.687
749.612	182.500
749.740	180.937
749.868	181.537
749.996	182.475
750.124	185.238
750.252	184.425
750.380	181.238
750.508	180.925
750.637	179.088
750.765	182.800
750.893	178.713
751.021	178.900
751.149	175.950
751.277	186.988
751.405	182.175
751.533	184.525
751.662	180.500
751.790	191.325
751.918	192.838
752.046	178.725
752.174	170.463
752.302	183.713
752.430	179.850
752.558	176.075
752.687	174.387
752.815	181.575
752.943	176.025
753.071	169.012
753.199	169.762
753.327	180.075
753.455	169.050
753.583	163.450
753.712	175.050
753.840	170.437
753.968	170.525
754.096	168.363
754.224	171.262
754.352	164.637
754.480	166.863
754.608	165.050
754.737	168.162
754.865	171.062
754.993	167.700
755.121	165.025
755.249	174.250
755.377	165.050
755.505	161.625
755.633	184.775
755.762	166.863
755.890	179.037
756.018	175.012
756.146	165.950
756.274	168.300
756.402	159.675
756.530	165.637
756.658	177.162
756.787	163.988
756.915	157.375
757.043	163.912
757.171	167.700
757.299	163.762
757.427	166.800
757.555	164.162
757.683	166.713
757.812	165.575
757.940	164.713
758.068	156.625
758.196	157.575
758.324	161.100
758.452	156.675
758.580	158.463
758.708	163.600
758.837	158.800
758.965	167.713
759.093	162.950
759.221	158.275
759.349	158.200
759.477	153.812
759.605	152.600
759.733	160.275
759.862	160.312
759.990	155.262
760.118	160.150
760.246	152.613
760.374	157.687
760.502	157.150
760.630	159.363
760.758	151.262
760.887	149.975
761.015	151.575
761.143	158.838
761.271	151.600
761.399	153.200
761.527	154.425
761.655	152.750
761.783	154.875
761.912	148.812
762.040	153.725
762.168	154.725
762.296	153.787
762.424	146.750
762.552	150.613
762.680	155.650
762.808	150.088
762.937	154.537
763.065	151.200
763.193	154.463
763.321	151.250
763.449	145.575
763.577	145.238
763.705	149.725
763.833	172.475
763.962	147.537
764.090	146.950
764.218	150.512
764.346	151.863
764.474	143.963
764.602	146.162
764.730	148.400
764.858	149.662
764.987	151.825
765.115	158.250
765.243	157.363
765.371	143.250
765.499	143.488
765.627	143.000
765.755	145.988
765.883	142.012
766.012	146.562
766.140	141.062
766.268	148.800
766.396	142.363
766.524	141.500
766.652	144.187
766.780	138.950
766.908	146.450
767.037	145.475
767.165	141.088
767.293	148.463
767.421	141.875
767.549	139.800
767.677	146.937
767.805	140.762
767.933	144.787
768.062	140.637
768.190	138.488
768.318	135.187
768.446	152.400
768.574	148.600
768.702	146.450
768.830	144.937
768.958	140.287
769.087	144.613
769.215	143.137
769.343	137.625
769.471	142.863
769.599	143.437
769.727	137.700
769.855	142.325
769.983	139.512
770.112	140.113
770.240	145.875
770.368	136.537
770.496	138.137
770.624	137.175
770.752	141.325
770.880	153.775
771.008	137.275
771.137	138.950
771.265	141.187
771.393	137.650
771.521	143.500
771.649	136.062
771.777	135.050
771.905	142.338
772.033	140.588
772.162	140.875
772.290	139.713
772.418	145.512
772.546	134.463
772.674	136.975
772.802	140.050
772.930	141.550
773.058	134.800
773.187	136.287
773.315	137.262
773.443	140.100
773.571	135.863
773.699	133.363
773.827	132.400
773.955	137.162
774.083	148.662
774.212	134.963
774.340	137.275
774.468	136.600
774.596	136.725
774.724	141.925
774.852	130.287
774.980	138.375
775.108	135.100
775.237	132.275
775.365	132.137
775.493	131.988
775.621	134.100
775.749	136.475
775.877	138.050
776.005	132.838
776.133	136.525
776.262	134.375
776.390	131.363
776.518	139.963
776.646	132.363
776.774	128.387
776.902	134.662
777.030	132.575
777.158	131.338
777.287	132.412
777.415	133.800
777.543	128.762
777.671	128.800
777.799	128.925
777.927	132.713
778.055	135.550
778.183	134.225
778.312	127.150
778.440	128.387
778.568	135.113
778.696	129.062
778.824	133.800
778.952	132.650
779.080	132.275
779.208	134.713
779.337	134.225
779.465	134.012
779.593	131.800
779.721	137.062
779.849	128.600
779.977	135.463
780.105	127.463
780.233	133.325
780.362	137.950
780.490	130.650
780.618	129.225
780.746	131.887
780.874	128.350
781.002	126.900
781.130	129.588
781.258	126.687
781.387	135.150
781.515	129.650
781.643	128.775
781.771	136.238
781.899	133.588
782.027	130.325
782.155	125.312
782.283	124.237
782.412	131.537
782.540	136.550
782.668	127.875
782.796	126.575
782.924	128.450
783.052	124.775
783.180	129.775
783.308	123.250
783.437	129.300
783.565	131.025
783.693	132.400
783.821	130.213
783.949	126.750
784.077	129.725
784.205	133.800
784.333	138.725
784.462	124.825
784.590	131.512
784.718	129.187
784.846	122.650
784.974	128.475
785.102	137.375
785.230	130.275
785.358	141.387
785.487	130.600
785.615	128.137
785.743	123.562
785.871	122.662
785.999	129.787
786.127	118.162
786.255	130.500
786.383	131.925
786.512	126.225
786.640	122.925
786.768	134.750
786.896	125.675
787.024	125.312
787.152	121.612
787.280	123.600
787.408	124.037
787.537	124.450
787.665	126.875
787.793	128.338
787.921	127.575
788.049	123.850
788.177	120.175
788.305	121.500
788.433	126.300
788.562	122.237
788.690	119.812
788.818	125.263
788.946	125.050
789.074	119.975
789.202	120.963
789.330	125.875
789.458	122.250
789.587	123.737
789.715	126.775
789.843	124.375
789.971	122.213
790.099	120.775
790.227	122.062
790.355	118.513
790.483	125.263
790.612	122.412
790.740	125.562
790.868	131.150
790.996	122.450
791.124	124.088
791.252	122.463
791.380	124.825
791.508	122.312
791.637	126.000
791.765	121.600
791.893	118.412
792.021	129.262
792.149	120.463
792.277	119.525
792.405	121.050
792.533	129.525
792.662	115.862
792.790	121.287
792.918	129.662
793.046	121.388
793.174	121.325
793.302	123.250
793.430	123.062
793.558	130.275
793.687	118.287
793.815	122.475
793.943	119.975
794.071	121.562
794.199	119.062
794.327	122.112
794.455	137.637
794.583	135.125
794.712	124.862
794.840	116.125
794.968	116.825
795.096	125.650
795.224	118.362
795.352	118.275
795.480	122.625
795.608	122.812
795.737	126.400
795.865	120.537
795.993	116.175
796.121	117.650
796.249	116.250
796.377	119.775
796.505	121.562
796.633	119.588
796.762	121.925
796.890	128.387
797.018	120.362
797.146	120.525
797.274	116.775
797.402	115.662
797.530	119.900
797.658	118.875
797.787	124.437
797.915	119.950
798.043	124.950
798.171	118.187
798.299	119.388
798.427	116.900
798.555	114.925
798.683	117.338
798.812	117.412
798.940	118.975
799.068	119.550
799.196	127.463
799.324	116.375
799.452	125.375
799.580	114.400
799.708	124.713
799.837	116.500
799.965	117.263
800.093	116.850
800.221	118.862
800.349	122.175
800.477	120.850
800.605	121.200
800.733	121.200
800.862	115.025
800.990	130.613
801.118	121.888
801.246	115.525
801.374	119.638
801.502	120.525
801.630	114.963
801.758	120.075
801.887	122.600
802.015	115.025
802.143	116.700
802.271	116.312
802.399	120.513
802.527	115.013
802.655	112.638
802.783	120.312
802.912	118.775
803.040	118.412
803.168	116.525
803.296	113.225
803.424	115.050
803.552	117.838
803.680	112.525
803.808	112.125
803.937	116.263
804.065	121.062
804.193	115.075
804.321	115.888
804.449	114.838
804.577	118.075
804.705	115.875
804.833	111.275
804.962	111.675
805.090	113.375
805.218	117.425
805.346	110.725
805.474	115.350
805.602	126.300
805.730	113.862
805.858	111.062
805.987	112.000
806.115	115.300
806.243	116.175
806.371	112.650
806.499	113.475
806.627	115.513
806.755	119.025
806.883	114.937
807.012	114.537
807.140	116.925
807.268	115.013
807.396	113.112
807.524	112.125
807.652	112.787
807.780	120.937
807.908	113.900
808.037	119.862
808.165	116.463
808.293	114.450
808.421	123.787
808.549	113.125
808.677	109.888
808.805	122.125
808.933	112.713
809.062	111.875
809.190	125.600
809.318	116.575
809.446	113.037
809.574	111.612
809.702	111.775
809.830	111.562
809.958	120.088
810.087	113.625
810.215	116.362
810.343	127.812
810.471	117.075
810.599	112.737
810.727	111.525
810.855	114.100
810.983	115.050
811.112	116.500
811.240	113.750
811.368	118.112
811.496	123.150
811.624	117.575
811.752	112.987
811.880	111.787
812.008	109.550
812.137	114.150
812.265	113.600
812.393	115.562
812.521	117.050
812.649	115.550
812.777	110.213
812.905	115.562
813.033	109.838
813.162	109.162
813.290	111.412
813.418	114.213
813.546	115.450
813.674	113.875
813.802	114.812
813.930	112.338
814.058	109.375
814.187	107.237
814.315	112.338
814.443	110.800
814.571	106.825
814.699	112.888
814.827	113.187
814.955	115.450
815.083	117.325
815.212	111.812
815.340	114.100
815.468	111.650
815.596	115.112
815.724	110.000
815.852	109.237
815.980	109.013
816.108	111.875
816.237	112.275
816.365	110.600
816.493	113.287
816.621	110.850
816.749	110.487
816.877	113.450
817.005	111.650
817.133	109.875
817.262	110.325
817.390	112.450
817.518	109.375
817.646	114.600
817.774	113.287
817.902	116.787
818.030	110.850
818.158	118.912
818.287	111.350
818.415	108.888
818.543	109.625
818.671	112.975
818.799	112.725
818.927	115.138
819.055	112.250
819.183	112.175
819.312	111.350
819.440	116.300
819.568	109.500
819.696	117.350
819.824	113.425
819.952	110.513
820.080	107.763
820.208	112.650
820.337	111.888
820.465	116.937
820.593	111.737
820.721	112.575
820.849	113.812
820.977	110.138
821.105	111.013
821.233	106.812
821.362	110.162
821.490	107.612
821.618	108.013
821.746	108.838
821.874	109.787
822.002	112.975
822.130	110.713
822.258	108.213
822.387	108.525
822.515	110.638
822.643	110.987
822.771	111.000
822.899	110.513
823.027	109.025
823.155	107.213
823.283	112.600
823.412	109.838
823.540	111.562
823.668	127.638
823.796	110.925
823.924	111.875
824.052	114.513
824.180	106.125
824.308	110.350
824.437	107.888
824.565	106.650
824.693	110.763
824.821	111.912
824.949	111.612
825.077	113.312
825.205	114.025
825.333	110.525
825.462	108.475
825.590	105.550
825.718	114.300
825.846	108.812
825.974	111.787
826.102	113.787
826.230	110.600
826.358	112.000
826.487	107.588
826.615	108.650
826.743	109.338
826.871	113.575
826.999	113.138
827.127	114.000
827.255	106.975
827.383	107.000
827.512	106.713
827.640	112.312
827.768	110.213
827.896	108.050
828.024	111.187
828.152	110.000
828.280	109.200
828.408	110.513
828.537	110.213
828.665	107.225
828.793	108.325
828.921	108.013
829.049	110.025
829.177	110.112
829.305	107.075
829.433	108.763
829.562	108.937
829.690	106.950
829.818	112.987
829.946	109.412
830.074	108.100
830.202	108.763
830.330	111.375
830.458	107.713
830.587	109.500
830.715	108.475
830.843	109.537
830.971	109.700
831.099	105.987
831.227	106.900
831.355	107.112
831.483	107.187
831.612	110.050
831.740	108.675
831.868	121.187
831.996	109.450
832.124	109.662
832.252	107.562
832.380	111.000
832.508	109.037
832.637	111.075
832.765	108.162
832.893	113.575
833.021	111.775
833.149	106.912
833.277	107.187
833.405	105.625
833.533	105.937
833.662	109.250
833.790	111.750
833.918	111.200
834.046	108.737
834.174	107.963
834.302	108.375
834.430	110.037
834.558	113.900
834.687	107.437
834.815	107.225
834.943	107.463
835.071	105.200
835.199	109.338
835.327	110.362
835.455	106.475
835.583	109.112
835.712	105.912
835.840	107.975
835.968	108.687
836.096	109.750
836.224	114.125
836.352	108.450
836.480	108.812
836.608	113.475
836.737	106.912
836.865	105.700
836.993	106.450
837.121	108.075
837.249	109.950
837.377	108.850
837.505	108.250
837.633	106.562
837.762	104.550
837.890	107.362
838.018	113.287
838.146	107.138
838.274	112.162
838.402	112.838
838.530	105.937
838.658	105.963
838.787	110.263
838.915	109.500
839.043	110.350
839.171	111.463
839.299	110.187
839.427	108.350
839.555	115.250
839.683	111.300
839.812	113.075
839.940	108.263
840.068	107.987
840.196	106.662
840.324	111.487
840.452	110.838
840.580	111.975
840.708	109.687
840.837	107.037
840.965	107.112
841.093	108.912
841.221	110.300
841.349	110.425
841.477	110.275
841.605	104.138
841.733	107.362
841.862	107.687
841.990	108.975
842.118	105.350
842.246	103.625
842.374	102.200
842.502	105.787
842.630	106.463
842.758	112.925
842.887	108.187
843.015	108.150
843.143	109.487
843.271	109.537
843.399	109.100
843.527	105.737
843.655	104.050
843.783	107.325
843.912	105.250
844.040	110.275
844.168	116.550
844.296	113.662
844.424	110.475
844.552	108.912
844.680	114.463
844.808	112.463
844.937	109.888
845.065	106.888
845.193	109.175
845.321	107.638
845.449	109.213
845.577	107.000
845.705	107.525
845.833	108.088
845.962	106.400
846.090	104.562
846.218	107.825
846.346	110.100
846.474	106.675
846.602	104.812
846.730	106.450
846.858	108.475
846.987	107.400
847.115	107.937
847.243	110.763
847.371	112.588
847.499	108.125
847.627	105.725
847.755	105.912
847.883	108.862
848.012	113.350
848.140	109.912
848.268	105.725
848.396	107.825
848.524	107.175
848.652	108.125
848.780	104.838
848.908	106.200
849.037	110.775
849.165	107.562
849.293	109.775
849.421	113.838
849.549	107.925
849.677	106.750
849.805	110.150
849.933	109.812
850.062	107.800
850.190	107.075
850.318	109.150
850.446	107.763
850.574	105.350
850.702	105.425
850.830	110.175
850.958	109.550
851.087	106.862
851.215	113.750
851.343	108.162
851.471	107.575
851.599	109.425
851.727	109.612
851.855	107.737
851.983	107.725
852.112	110.450
852.240	107.437
852.368	108.713
852.496	104.312
852.624	104.825
852.752	108.562
852.880	106.787
853.008	111.263
853.137	108.475
853.265	107.350
853.393	112.187
853.521	113.600
853.649	113.625
853.777	107.325
853.905	107.350
854.033	108.450
854.162	109.625
854.290	109.187
854.418	106.550
854.546	107.250
854.674	106.550
854.802	106.088
854.930	106.237
855.058	105.400
855.187	104.687
855.315	107.138
855.443	105.812
855.571	103.825
855.699	106.800
855.827	108.200
855.955	105.888
856.083	106.875
856.212	106.987
856.340	109.487
856.468	113.463
856.596	110.112
856.724	109.350
856.852	108.125
856.980	106.062
857.108	107.125
857.237	109.838
857.365	111.575
857.493	104.463
857.621	105.425
857.749	104.625
857.877	110.825
858.005	111.050
858.133	109.425
858.262	108.037
858.390	106.263
858.518	104.700
858.646	109.325
858.774	107.600
858.902	107.850
859.030	106.600
859.158	104.700
859.287	109.000
859.415	108.700
859.543	107.000
859.671	111.175
859.799	111.388
859.927	106.725
860.055	109.138
860.183	106.225
860.312	108.812
860.440	108.112
860.568	112.013
860.696	109.162
860.824	120.475
860.952	107.850
861.080	109.138
861.208	108.050
861.337	108.138
861.465	107.600
861.593	112.950
861.721	106.175
861.849	107.588
861.977	108.600
862.105	105.925
862.233	105.912
862.362	107.112
862.490	109.312
862.618	107.875
862.746	106.388
862.874	109.075
863.002	110.425
863.130	110.700
863.258	109.650
863.387	108.862
863.515	107.400
863.643	106.100
863.771	106.588
863.899	107.200
864.027	106.463
864.155	106.013
864.283	105.900
864.412	105.062
864.540	105.713
864.668	104.537
864.796	104.375
864.924	106.537
865.052	108.162
865.180	106.200
865.308	104.987
865.437	105.850
865.565	109.713
865.693	106.713
865.821	107.750
865.949	106.925
866.077	104.725
866.205	105.400
866.333	108.987
866.462	107.862
866.590	110.013
866.718	108.588
866.846	108.175
866.974	108.600
867.102	110.125
867.230	105.138
867.358	107.787
867.487	110.388
867.615	106.875
867.743	105.612
867.871	106.025
867.999	107.463
868.127	104.338
868.255	116.013
868.383	111.487
868.512	109.075
868.640	109.237
868.768	109.800
868.896	109.138
869.024	110.050
869.152	112.638
869.280	110.537
869.408	108.950
869.537	107.112
869.665	109.888
869.793	106.600
869.921	110.700
870.049	109.100
870.177	108.338
870.305	118.825
870.433	109.475
870.562	106.200
870.690	108.213
870.818	105.200
870.946	108.237
871.074	105.725
871.202	107.287
871.330	105.437
871.458	105.725
871.587	104.400
871.715	105.575
871.843	109.112
871.971	108.362
872.099	105.775
872.227	106.500
872.355	109.987
872.483	107.237
872.612	108.213
872.740	110.600
872.868	107.275
872.996	108.963
873.124	108.537
873.252	110.150
873.380	108.638
873.508	107.912
873.637	106.412
873.765	108.437
873.893	109.237
874.021	107.575
874.149	107.162
874.277	106.187
874.405	111.000
874.533	106.025
874.662	331.950
874.790	114.812
874.918	114.463
875.046	110.325
875.174	109.625
875.302	109.975
875.430	108.425
875.558	108.138
875.687	110.312
875.815	107.638
875.943	108.175
876.071	109.312
876.199	108.263
876.327	112.013
876.455	108.588
876.583	107.925
876.712	106.850
876.840	108.975
876.968	107.000
877.096	107.650
877.224	104.662
877.352	105.200
877.480	104.687
877.608	107.037
877.737	107.237
877.865	107.025
877.993	109.162
878.121	105.975
878.249	112.350
878.377	106.625
878.505	107.562
878.633	108.375
878.762	105.850
878.890	109.588
879.018	111.800
879.146	105.500
879.274	107.513
879.402	108.925
879.530	107.700
879.658	111.013
879.787	110.075
879.915	107.513
880.043	107.713
880.171	103.600
880.299	106.138
880.427	107.250
880.555	112.312
880.683	111.963
880.812	109.937
880.940	108.437
881.068	106.125
881.196	107.200
881.324	108.550
881.452	108.037
881.580	107.437
881.708	107.525
881.837	104.588
881.965	107.612
882.093	109.275
882.221	107.588
882.349	113.463
882.477	110.037
882.605	116.200
882.733	110.088
882.862	107.562
882.990	104.487
883.118	108.575
883.246	108.875
883.374	107.750
883.502	104.850
883.630	105.400
883.758	109.612
883.887	106.850
884.015	105.050
884.143	107.013
884.271	110.275
884.399	105.263
884.527	107.088
884.655	107.475
884.783	106.287
884.912	106.787
885.040	107.500
885.168	105.525
885.296	107.100
885.424	106.775
885.552	106.662
885.680	105.225
885.808	109.075
885.937	111.725
886.065	113.162
886.193	108.100
886.321	107.287
886.449	106.400
886.577	109.037
886.705	107.225
886.833	108.562
886.962	104.725
887.090	109.000
887.218	104.862
887.346	104.237
887.474	114.150
887.602	110.237
887.730	105.925
887.858	108.375
887.987	107.650
888.115	113.400
888.243	112.888
888.371	111.937
888.499	110.112
888.627	110.588
888.755	107.662
888.883	107.275
889.012	108.138
889.140	109.350
889.268	118.187
889.396	109.112
889.524	105.600
889.652	106.550
889.780	106.737
889.908	106.600
890.037	107.662
890.165	108.388
890.293	109.638
890.421	120.050
890.549	109.912
890.677	109.838
890.805	108.112
890.933	108.925
891.062	107.050
891.190	109.237
891.318	112.662
891.446	109.287
891.574	107.375
891.702	106.025
891.830	108.975
891.958	109.450
892.087	112.200
892.215	111.437
892.343	111.713
892.471	106.850
892.599	108.612
892.727	112.325
892.855	109.638
892.983	110.150
893.112	110.812
893.240	113.013
893.368	109.987
893.496	109.650
893.624	109.675
893.752	111.600
893.880	108.300
894.008	108.912
894.137	112.750
894.265	111.888
894.393	111.550
894.521	110.650
894.649	112.325
894.777	107.037
894.905	107.525
895.033	115.825
895.162	113.225
895.290	109.138
895.418	111.287
895.546	113.650
895.674	116.362
895.802	109.350
895.930	110.025
896.058	105.237
896.187	104.300
896.315	108.850
896.443	111.487
896.571	111.187
896.699	106.750
896.827	106.375
896.955	109.263
897.083	113.213
897.212	108.812
897.340	108.437
897.468	110.150
897.596	112.888
897.724	109.750
897.852	112.175
897.980	109.412
898.108	104.862
898.237	105.812
898.365	107.375
898.493	107.925
898.621	107.700
898.749	107.362
898.877	107.050
899.005	106.737
899.133	107.362
899.262	108.475
899.390	108.687
899.518	107.037
899.646	109.862
899.774	114.037
899.902	116.937
900.030	113.287
900.158	107.088
900.287	109.900
900.415	107.400
900.543	105.687
900.671	108.213
900.799	112.187
900.927	112.800
901.055	110.013
901.183	113.912
901.312	107.425
901.440	113.125
901.568	111.862
901.696	109.425
901.824	110.725
901.952	114.937
902.080	110.900
902.208	108.575
902.337	110.625
902.465	110.088
902.593	108.638
902.721	110.675
902.849	108.912
902.977	110.225
903.105	113.437
903.233	115.862
903.362	113.263
903.490	112.162
903.618	110.525
903.746	111.713
903.874	111.138
904.002	108.475
904.130	113.550
904.258	112.088
904.387	107.025
904.515	106.075
904.643	106.375
904.771	110.075
904.899	114.325
905.027	112.013
905.155	108.925
905.283	108.650
905.412	113.937
905.540	110.412
905.668	106.950
905.796	106.700
905.924	109.437
906.052	112.525
906.180	113.675
906.308	116.575
906.437	114.463
906.565	115.125
906.693	111.513
906.821	106.912
906.949	107.062
907.077	109.650
907.205	112.713
907.333	111.450
907.462	109.625
907.590	112.375
907.718	113.562
907.846	110.463
907.974	109.838
908.102	110.737
908.230	113.750
908.358	115.950
908.487	113.862
908.615	113.350
908.743	112.450
908.871	123.862
908.999	112.750
909.127	114.338
909.255	110.000
909.383	109.450
909.512	115.437
909.640	109.263
909.768	110.525
909.896	120.675
910.024	113.825
910.152	114.725
910.280	120.475
910.408	110.213
910.537	114.700
910.665	112.787
910.793	115.013
910.921	118.537
911.049	115.687
911.177	111.325
911.305	114.625
911.433	112.838
911.562	109.725
911.690	112.125
911.818	123.200
911.946	115.750
912.074	115.112
912.202	111.138
912.330	115.150
912.458	115.025
912.587	121.388
912.715	118.112
912.843	117.287
912.971	118.537
913.099	115.150
913.227	116.550
913.355	116.675
913.483	115.662
913.612	114.088
913.740	120.687
913.868	119.200
