sample8_PP_at_750.00nm_cut_at_1008.00Y_01.dat
15.05.2023
11:05:32
cut middle at Y: 1008.00
top cursor: 1048 down cursor: 968 mean of: 80 lines , 2560 datapoints
wavelength(nm)	intensity[arb. units]
585.996	928.725
586.124	909.487
586.252	909.475
586.380	915.913
586.508	918.962
586.637	919.500
586.765	917.437
586.893	924.437
587.021	926.413
587.149	930.575
587.277	918.075
587.405	928.888
587.533	929.625
587.662	929.587
587.790	941.237
587.918	926.350
588.046	933.875
588.174	923.550
588.302	933.962
588.430	924.750
588.558	926.825
588.687	931.250
588.815	955.487
588.943	928.187
589.071	923.163
589.199	953.737
589.327	942.475
589.455	918.000
589.583	938.700
589.712	940.263
589.840	941.663
589.968	930.275
590.096	940.987
590.224	939.013
590.352	936.000
590.480	931.837
590.608	941.850
590.737	946.763
590.865	939.650
590.993	942.275
591.121	939.875
591.249	944.100
591.377	944.725
591.505	931.312
591.633	959.437
591.762	946.538
591.890	952.525
592.018	949.500
592.146	947.850
592.274	962.725
592.402	940.612
592.530	953.900
592.658	952.550
592.787	960.225
592.915	952.212
593.043	952.212
593.171	954.138
593.299	967.025
593.427	956.888
593.555	951.725
593.683	965.937
593.812	970.913
593.940	970.000
594.068	978.100
594.196	984.525
594.324	961.013
594.452	986.050
594.580	993.075
594.708	969.275
594.837	983.350
594.965	989.750
595.093	997.638
595.221	986.038
595.349	992.400
595.477	996.638
595.605	983.437
595.733	1015.837
595.862	996.237
595.990	997.513
596.118	996.650
596.246	995.425
596.374	1023.462
596.502	1018.513
596.630	1016.175
596.758	1004.587
596.887	1019.212
597.015	1020.525
597.143	1004.600
597.271	1024.437
597.399	1020.562
597.527	1023.638
597.655	1020.775
597.783	1023.600
597.912	1012.675
598.040	1016.900
598.168	1029.750
598.296	1022.425
598.424	1021.625
598.552	1008.087
598.680	1018.538
598.808	1018.200
598.937	1025.987
599.065	1025.175
599.193	1008.413
599.321	1000.775
599.449	1036.612
599.577	1017.913
599.705	1010.212
599.833	1016.375
599.962	1012.638
600.090	1024.875
600.218	1016.888
600.346	1021.712
600.474	1035.812
600.602	1032.750
600.730	1016.138
600.858	1029.400
600.987	1022.437
601.115	1021.538
601.243	1016.763
601.371	1019.925
601.499	1030.237
601.627	1023.987
601.755	1038.287
601.883	1032.812
602.012	1036.437
602.140	1034.800
602.268	1043.375
602.396	1036.200
602.524	1038.425
602.652	1048.112
602.780	1029.900
602.908	1046.525
603.037	1050.312
603.165	1051.650
603.293	1068.937
603.421	1067.888
603.549	1063.588
603.677	1086.175
603.805	1063.425
603.933	1069.350
604.062	1072.575
604.190	1081.312
604.318	1064.987
604.446	1093.537
604.574	1089.537
604.702	1092.000
604.830	1083.875
604.958	1100.312
605.087	1112.487
605.215	1103.437
605.343	1115.312
605.471	1103.750
605.599	1111.362
605.727	1115.987
605.855	1125.200
605.983	1109.237
606.112	1120.750
606.240	1122.662
606.368	1125.075
606.496	1137.662
606.624	1129.362
606.752	1129.125
606.880	1125.275
607.008	1137.550
607.137	1141.025
607.265	1149.987
607.393	1159.775
607.521	1147.937
607.649	1135.112
607.777	1127.037
607.905	1139.912
608.033	1141.737
608.162	1145.638
608.290	1139.300
608.418	1152.537
608.546	1144.450
608.674	1162.287
608.802	1151.588
608.930	1148.975
609.058	1134.350
609.187	1142.162
609.315	1141.937
609.443	1138.687
609.571	1157.325
609.699	1154.263
609.827	1150.138
609.955	1146.625
610.083	1140.200
610.212	1140.588
610.340	1154.800
610.468	1141.888
610.596	1153.312
610.724	1156.025
610.852	1153.088
610.980	1138.937
611.108	1153.850
611.237	1159.650
611.365	1155.388
611.493	1145.000
611.621	1156.662
611.749	1161.025
611.877	1159.588
612.005	1152.612
612.133	1153.638
612.262	1157.750
612.390	1158.937
612.518	1164.425
612.646	1158.775
612.774	1161.963
612.902	1171.775
613.030	1166.013
613.158	1173.888
613.287	1193.100
613.415	1170.725
613.543	1170.875
613.671	1174.050
613.799	1189.388
613.927	1173.737
614.055	1185.338
614.183	1189.862
614.312	1189.450
614.440	1188.775
614.568	1195.875
614.696	1209.312
614.824	1194.150
614.952	1182.687
615.080	1202.687
615.208	1201.862
615.337	1221.275
615.465	1218.850
615.593	1233.725
615.721	1224.787
615.849	1243.200
615.977	1231.888
616.105	1211.175
616.233	1233.950
616.362	1232.487
616.490	1225.487
616.618	1245.638
616.746	1233.187
616.874	1249.312
617.002	1248.000
617.130	1251.700
617.258	1240.338
617.387	1247.550
617.515	1256.800
617.643	1255.325
617.771	1251.325
617.899	1271.112
618.027	1256.900
618.155	1267.150
618.283	1267.050
618.412	1263.687
618.540	1268.625
618.668	1269.463
618.796	1248.700
618.924	1264.500
619.052	1270.812
619.180	1280.950
619.308	1277.925
619.437	1275.950
619.565	1281.187
619.693	1275.862
619.821	1278.338
619.949	1253.850
620.077	1271.900
620.205	1281.600
620.333	1276.625
620.462	1279.800
620.590	1277.150
620.718	1284.838
620.846	1278.000
620.974	1314.812
621.102	1275.925
621.230	1286.062
621.358	1306.662
621.487	1277.175
621.615	1286.062
621.743	1310.200
621.871	1294.075
621.999	1295.775
622.127	1292.662
622.255	1293.375
622.383	1292.175
622.512	1300.687
622.640	1305.562
622.768	1297.187
622.896	1290.487
623.024	1283.687
623.152	1301.237
623.280	1280.400
623.408	1295.912
623.537	1297.275
623.665	1302.213
623.793	1295.900
623.921	1295.275
624.049	1295.838
624.177	1297.175
624.305	1302.900
624.433	1296.200
624.562	1312.338
624.690	1302.125
624.818	1309.062
624.946	1312.675
625.074	1300.112
625.202	1316.987
625.330	1294.513
625.458	1311.138
625.587	1308.213
625.715	1311.025
625.843	1311.963
625.971	1324.325
626.099	1321.525
626.227	1321.612
626.355	1305.500
626.483	1315.650
626.612	1309.950
626.740	1300.287
626.868	1330.812
626.996	1317.737
627.124	1309.213
627.252	1305.213
627.380	1322.187
627.508	1319.675
627.637	1314.150
627.765	1325.513
627.893	1330.500
628.021	1313.575
628.149	1355.275
628.277	1370.625
628.405	1356.112
628.533	1331.625
628.662	1325.350
628.790	1338.088
628.918	1329.187
629.046	1349.125
629.174	1318.862
629.302	1354.675
629.430	1341.450
629.558	1341.450
629.687	1337.463
629.815	1349.875
629.943	1338.213
630.071	1351.338
630.199	1355.112
630.327	1349.862
630.455	1336.125
630.583	1360.112
630.712	1368.600
630.840	1363.312
630.968	1395.125
631.096	1366.912
631.224	1354.287
631.352	1359.700
631.480	1379.550
631.608	1369.463
631.737	1375.700
631.865	1387.750
631.993	1366.263
632.121	1389.950
632.249	1388.537
632.377	1395.175
632.505	1383.650
632.633	1387.513
632.762	1398.125
632.890	1387.575
633.018	1385.463
633.146	1401.800
633.274	1378.750
633.402	1391.500
633.530	1386.162
633.658	1391.388
633.787	1386.925
633.915	1398.950
634.043	1391.925
634.171	1399.850
634.299	1393.275
634.427	1391.625
634.555	1399.075
634.683	1395.987
634.812	1393.825
634.940	1402.388
635.068	1384.213
635.196	1380.088
635.324	1396.487
635.452	1396.050
635.580	1393.900
635.708	1379.638
635.837	1374.612
635.965	1388.237
636.093	1381.463
636.221	1385.112
636.349	1380.838
636.477	1369.888
636.605	1391.200
636.733	1356.550
636.862	1365.125
636.990	1368.700
637.118	1362.350
637.246	1361.150
637.374	1371.062
637.502	1356.750
637.630	1372.138
637.758	1359.412
637.887	1368.425
638.015	1363.412
638.143	1369.213
638.271	1352.300
638.399	1353.475
638.527	1353.737
638.655	1344.550
638.783	1364.425
638.912	1348.138
639.040	1334.638
639.168	1339.713
639.296	1344.375
639.424	1353.487
639.552	1341.375
639.680	1382.537
639.808	1359.475
639.937	1335.525
640.065	1344.825
640.193	1346.750
640.321	1328.937
640.449	1344.088
640.577	1342.150
640.705	1327.138
640.833	1342.675
640.962	1344.312
641.090	1337.588
641.218	1347.925
641.346	1326.175
641.474	1328.950
641.602	1327.100
641.730	1343.600
641.858	1330.675
641.987	1327.150
642.115	1338.700
642.243	1348.350
642.371	1358.388
642.499	1333.675
642.627	1341.050
642.755	1339.187
642.883	1337.875
643.012	1338.075
643.140	1339.338
643.268	1326.412
643.396	1340.787
643.524	1341.625
643.652	1342.537
643.780	1327.162
643.908	1344.388
644.037	1344.338
644.165	1334.000
644.293	1339.187
644.421	1337.650
644.549	1344.475
644.677	1358.975
644.805	1344.388
644.933	1342.638
645.062	1338.062
645.190	1329.088
645.318	1327.112
645.446	1358.600
645.574	1346.737
645.702	1343.287
645.830	1349.275
645.958	1352.562
646.087	1338.463
646.215	1341.737
646.343	1342.862
646.471	1360.112
646.599	1347.187
646.727	1332.025
646.855	1338.937
646.983	1338.825
647.112	1342.275
647.240	1345.100
647.368	1333.875
647.496	1326.088
647.624	1338.350
647.752	1334.000
647.880	1339.225
648.008	1337.312
648.137	1330.888
648.265	1317.425
648.393	1329.750
648.521	1338.437
648.649	1332.475
648.777	1326.975
648.905	1313.312
649.033	1309.300
649.162	1312.050
649.290	1327.062
649.418	1304.275
649.546	1316.600
649.674	1313.250
649.802	1303.325
649.930	1305.237
650.058	1308.825
650.187	1313.687
650.315	1310.287
650.443	1301.713
650.571	1296.975
650.699	1305.687
650.827	1297.900
650.955	1291.000
651.083	1304.787
651.212	1291.750
651.340	1283.425
651.468	1277.100
651.596	1282.150
651.724	1267.450
651.852	1291.862
651.980	1272.375
652.108	1284.362
652.237	1262.562
652.365	1261.537
652.493	1261.162
652.621	1273.850
652.749	1266.088
652.877	1260.925
653.005	1255.287
653.133	1271.050
653.262	1259.537
653.390	1254.263
653.518	1259.162
653.646	1242.825
653.774	1257.937
653.902	1260.975
654.030	1255.838
654.158	1240.388
654.287	1238.450
654.415	1236.975
654.543	1246.588
654.671	1239.437
654.799	1236.437
654.927	1248.187
655.055	1232.450
655.183	1227.963
655.312	1211.537
655.440	1236.075
655.568	1219.088
655.696	1219.150
655.824	1226.875
655.952	1229.000
656.080	1212.638
656.208	1234.475
656.337	1210.900
656.465	1210.125
656.593	1222.675
656.721	1209.362
656.849	1209.400
656.977	1204.200
657.105	1202.550
657.233	1199.812
657.362	1199.513
657.490	1200.075
657.618	1199.875
657.746	1193.975
657.874	1184.463
658.002	1197.062
658.130	1183.013
658.258	1191.975
658.387	1192.800
658.515	1176.975
658.643	1191.213
658.771	1185.412
658.899	1184.275
659.027	1186.487
659.155	1196.675
659.283	1163.487
659.412	1170.888
659.540	1177.687
659.668	1176.525
659.796	1159.888
659.924	1182.925
660.052	1182.388
660.180	1152.975
660.308	1166.987
660.437	1159.687
660.565	1164.937
660.693	1156.237
660.821	1167.687
660.949	1168.037
661.077	1156.187
661.205	1147.713
661.333	1150.388
661.462	1160.725
661.590	1169.437
661.718	1141.763
661.846	1145.900
661.974	1155.350
662.102	1147.138
662.230	1139.525
662.358	1131.075
662.487	1149.838
662.615	1132.037
662.743	1150.325
662.871	1139.700
662.999	1137.150
663.127	1121.000
663.255	1135.562
663.383	1140.275
663.512	1136.900
663.640	1125.812
663.768	1126.675
663.896	1137.138
664.024	1127.700
664.152	1127.338
664.280	1122.112
664.408	1121.713
664.537	1122.437
664.665	1128.737
664.793	1108.638
664.921	1104.062
665.049	1111.612
665.177	1126.287
665.305	1106.963
665.433	1110.250
665.562	1110.300
665.690	1113.100
665.818	1107.500
665.946	1108.362
666.074	1101.775
666.202	1100.513
666.330	1100.588
666.458	1101.025
666.587	1096.888
666.715	1105.162
666.843	1106.050
666.971	1096.362
667.099	1103.787
667.227	1116.162
667.355	1089.775
667.483	1086.350
667.612	1093.912
667.740	1094.662
667.868	1108.487
667.996	1086.112
668.124	1087.937
668.252	1087.175
668.380	1079.950
668.508	1093.612
668.637	1084.150
668.765	1086.200
668.893	1085.062
669.021	1070.500
669.149	1063.125
669.277	1074.263
669.405	1070.888
669.533	1081.775
669.662	1089.475
669.790	1064.937
669.918	1071.388
670.046	1068.700
670.174	1071.100
670.302	1070.162
670.430	1050.787
670.558	1062.362
670.687	1052.662
670.815	1051.450
670.943	1058.250
671.071	1052.875
671.199	1061.575
671.327	1046.088
671.455	1043.562
671.583	1045.963
671.712	1048.713
671.840	1043.250
671.968	1033.838
672.096	1031.838
672.224	1033.950
672.352	1034.625
672.480	1034.225
672.608	1035.275
672.737	1026.025
672.865	1019.700
672.993	1023.212
673.121	1030.850
673.249	1021.475
673.377	1012.788
673.505	1015.538
673.633	1004.462
673.762	1004.112
673.890	1017.450
674.018	1007.175
674.146	1001.288
674.274	1016.913
674.402	1005.625
674.530	1001.612
674.658	994.263
674.787	993.788
674.915	985.837
675.043	1003.725
675.171	991.950
675.299	984.062
675.427	982.388
675.555	986.888
675.683	980.975
675.812	966.962
675.940	974.100
676.068	986.975
676.196	965.725
676.324	971.350
676.452	958.350
676.580	960.812
676.708	967.038
676.837	974.913
676.965	955.250
677.093	958.375
677.221	957.200
677.349	953.300
677.477	942.062
677.605	941.575
677.733	953.737
677.862	944.150
677.990	960.275
678.118	939.475
678.246	921.612
678.374	928.650
678.502	930.800
678.630	923.862
678.758	935.150
678.887	924.087
679.015	927.475
679.143	927.913
679.271	920.612
679.399	911.950
679.527	903.850
679.655	911.600
679.783	910.400
679.912	908.587
680.040	907.487
680.168	908.462
680.296	904.437
680.424	903.638
680.552	897.125
680.680	894.450
680.808	896.775
680.937	897.300
681.065	892.513
681.193	894.862
681.321	901.950
681.449	892.237
681.577	888.775
681.705	886.150
681.833	880.462
681.962	875.300
682.090	895.763
682.218	882.600
682.346	878.525
682.474	876.825
682.602	872.575
682.730	879.112
682.858	862.962
682.987	875.562
683.115	871.325
683.243	864.087
683.371	861.125
683.499	864.013
683.627	866.300
683.755	863.025
683.883	860.850
684.012	851.712
684.140	862.638
684.268	852.087
684.396	857.825
684.524	854.950
684.652	864.300
684.780	863.087
684.908	851.013
685.037	855.275
685.165	855.025
685.293	849.200
685.421	848.087
685.549	848.025
685.677	852.562
685.805	844.538
685.933	847.925
686.062	836.062
686.190	839.000
686.318	842.962
686.446	845.575
686.574	830.150
686.702	837.013
686.830	831.562
686.958	821.763
687.087	832.663
687.215	825.050
687.343	833.388
687.471	817.312
687.599	819.225
687.727	818.638
687.855	825.000
687.983	826.900
688.112	825.225
688.240	811.263
688.368	814.437
688.496	816.950
688.624	820.075
688.752	810.050
688.880	813.987
689.008	810.000
689.137	812.462
689.265	810.612
689.393	795.175
689.521	803.437
689.649	795.513
689.777	803.687
689.905	802.475
690.033	808.750
690.162	797.575
690.290	796.562
690.418	797.862
690.546	810.675
690.674	802.962
690.802	789.163
690.930	785.687
691.058	790.750
691.187	778.337
691.315	784.700
691.443	779.025
691.571	781.712
691.699	765.025
691.827	774.900
691.955	782.650
692.083	774.775
692.212	761.237
692.340	778.250
692.468	766.687
692.596	765.150
692.724	762.788
692.852	758.888
692.980	764.212
693.108	759.400
693.237	745.150
693.365	749.312
693.493	753.538
693.621	746.962
693.749	756.962
693.877	747.550
694.005	741.375
694.133	753.362
694.262	747.800
694.390	736.763
694.518	726.937
694.646	736.225
694.774	735.788
694.902	735.400
695.030	742.587
695.158	723.487
695.287	725.600
695.415	727.075
695.543	731.937
695.671	720.288
695.799	725.987
695.927	716.425
696.055	718.388
696.183	728.450
696.312	726.337
696.440	710.087
696.568	705.413
696.696	704.000
696.824	701.737
696.952	711.962
697.080	700.638
697.208	707.612
697.337	691.675
697.465	691.550
697.593	694.225
697.721	698.725
697.849	681.987
697.977	692.038
698.105	698.725
698.233	704.087
698.362	686.325
698.490	685.250
698.618	685.300
698.746	683.850
698.874	685.475
699.002	680.150
699.130	688.013
699.258	672.962
699.387	671.837
699.515	673.312
699.643	678.175
699.771	675.187
699.899	670.450
700.027	668.675
700.155	670.337
700.283	670.625
700.412	664.288
700.540	661.712
700.668	655.550
700.796	664.625
700.924	655.025
701.052	659.125
701.180	654.263
701.308	653.325
701.437	642.550
701.565	651.725
701.693	646.788
701.821	648.375
701.949	657.650
702.077	633.712
702.205	651.687
702.333	639.638
702.462	638.425
702.590	635.900
702.718	632.700
702.846	632.300
702.974	644.525
703.102	636.975
703.230	630.112
703.358	628.788
703.487	626.450
703.615	628.538
703.743	614.862
703.871	625.850
703.999	613.312
704.127	610.050
704.255	606.200
704.383	611.575
704.512	607.900
704.640	612.600
704.768	595.200
704.896	605.675
705.024	599.138
705.152	600.913
705.280	600.675
705.408	597.788
705.537	598.200
705.665	598.212
705.793	600.625
705.921	590.275
706.049	600.763
706.177	592.437
706.305	587.725
706.433	590.825
706.562	581.325
706.690	581.087
706.818	575.788
706.946	583.175
707.074	572.312
707.202	577.888
707.330	578.550
707.458	571.925
707.587	569.888
707.715	572.837
707.843	567.350
707.971	575.575
708.099	568.138
708.227	559.487
708.355	559.862
708.483	556.763
708.612	561.013
708.740	550.862
708.868	551.600
708.996	559.888
709.124	561.850
709.252	559.750
709.380	553.550
709.508	546.337
709.637	547.837
709.765	545.913
709.893	540.600
710.021	550.913
710.149	536.350
710.277	557.562
710.405	541.450
710.533	537.875
710.662	542.687
710.790	540.013
710.918	538.150
711.046	533.650
711.174	536.825
711.302	530.638
711.430	529.212
711.558	529.525
711.687	526.987
711.815	527.425
711.943	535.675
712.071	527.675
712.199	523.750
712.327	522.725
712.455	523.525
712.583	519.325
712.712	535.062
712.840	520.150
712.968	514.712
713.096	512.788
713.224	509.600
713.352	511.913
713.480	511.613
713.608	509.300
713.737	502.575
713.865	514.062
713.993	504.825
714.121	504.250
714.249	502.800
714.377	503.700
714.505	505.300
714.633	491.613
714.762	501.137
714.890	501.337
715.018	497.600
715.146	495.500
715.274	493.637
715.402	487.400
715.530	496.837
715.658	492.087
715.787	493.475
715.915	490.750
716.043	486.462
716.171	493.687
716.299	499.775
716.427	486.600
716.555	487.700
716.683	490.887
716.812	486.837
716.940	486.387
717.068	471.550
717.196	483.137
717.324	479.913
717.452	477.475
717.580	472.275
717.708	473.275
717.837	480.975
717.965	477.762
718.093	469.500
718.221	466.675
718.349	475.100
718.477	464.087
718.605	464.012
718.733	467.288
718.862	458.400
718.990	459.700
719.118	469.387
719.246	461.113
719.374	461.675
719.502	470.425
719.630	465.012
719.758	460.975
719.887	450.262
720.015	460.350
720.143	448.425
720.271	457.038
720.399	458.212
720.527	454.800
720.655	448.450
720.783	446.700
720.912	459.238
721.040	462.262
721.168	442.863
721.296	442.538
721.424	446.238
721.552	440.312
721.680	438.275
721.808	446.650
721.937	444.512
722.065	441.525
722.193	433.625
722.321	437.000
722.449	440.437
722.577	432.800
722.705	429.400
722.833	432.637
722.962	438.863
723.090	425.613
723.218	431.625
723.346	430.062
723.474	429.275
723.602	427.925
723.730	427.062
723.858	426.512
723.987	422.187
724.115	420.850
724.243	418.875
724.371	419.613
724.499	424.950
724.627	413.163
724.755	423.462
724.883	414.250
725.012	414.375
725.140	411.337
725.268	413.525
725.396	414.550
725.524	410.712
725.652	406.050
725.780	406.925
725.908	406.062
726.037	403.712
726.165	405.038
726.293	403.663
726.421	400.375
726.549	406.962
726.677	403.288
726.805	403.400
726.933	400.413
727.062	397.988
727.190	399.850
727.318	396.200
727.446	398.512
727.574	391.937
727.702	393.988
727.830	394.900
727.958	395.075
728.087	388.250
728.215	387.863
728.343	388.600
728.471	387.225
728.599	377.687
728.727	386.300
728.855	385.937
728.983	381.363
729.112	379.525
729.240	381.413
729.368	379.600
729.496	378.637
729.624	381.288
729.752	382.488
729.880	383.950
730.008	383.337
730.137	376.312
730.265	379.113
730.393	372.788
730.521	368.012
730.649	373.387
730.777	373.512
730.905	370.750
731.033	373.337
731.162	365.525
731.290	372.312
731.418	371.600
731.546	386.300
731.674	361.700
731.802	368.700
731.930	368.975
732.058	366.525
732.187	368.850
732.315	359.538
732.443	363.363
732.571	353.825
732.699	357.150
732.827	362.413
732.955	352.850
733.083	351.075
733.212	351.325
733.340	351.887
733.468	357.437
733.596	359.300
733.724	352.225
733.852	358.212
733.980	351.475
734.108	358.075
734.237	358.913
734.365	346.837
734.493	351.575
734.621	352.137
734.749	354.925
734.877	346.012
735.005	352.363
735.133	351.375
735.262	348.137
735.390	348.587
735.518	346.762
735.646	339.962
735.774	343.775
735.902	350.913
736.030	348.837
736.158	351.087
736.287	340.262
736.415	345.337
736.543	339.812
736.671	338.238
736.799	341.525
736.927	356.175
737.055	342.062
737.183	337.625
737.312	339.538
737.440	351.038
737.568	352.375
737.696	339.937
737.824	339.275
737.952	345.175
738.080	345.538
738.208	339.863
738.337	334.725
738.465	345.575
738.593	333.675
738.721	330.613
738.849	329.137
738.977	340.575
739.105	336.225
739.233	332.800
739.362	329.525
739.490	321.837
739.618	332.962
739.746	330.262
739.874	341.238
740.002	327.700
740.130	330.875
740.258	328.137
740.387	327.125
740.515	322.650
740.643	330.125
740.771	331.200
740.899	332.262
741.027	323.825
741.155	333.437
741.283	317.475
741.412	321.300
741.540	319.312
741.668	319.087
741.796	320.462
741.924	331.137
742.052	318.988
742.180	318.800
742.308	324.475
742.437	326.387
742.565	323.850
742.693	325.150
742.821	318.300
742.949	319.675
743.077	321.500
743.205	319.725
743.333	320.525
743.462	319.875
743.590	322.038
743.718	312.038
743.846	319.925
743.974	311.062
744.102	305.387
744.230	312.625
744.358	307.375
744.487	320.000
744.615	311.762
744.743	312.525
744.871	308.937
744.999	317.163
745.127	306.637
745.255	307.025
745.383	308.337
745.512	310.375
745.640	306.150
745.768	309.500
745.896	303.488
746.024	308.800
746.152	301.437
746.280	308.988
746.408	311.575
746.537	313.562
746.665	313.762
746.793	302.150
746.921	304.288
747.049	300.625
747.177	308.238
747.305	296.788
747.433	305.762
747.562	297.175
747.690	293.512
747.818	304.238
747.946	299.137
748.074	313.875
748.202	297.400
748.330	293.975
748.458	303.575
748.587	299.863
748.715	289.562
748.843	295.425
748.971	293.387
749.099	292.712
749.227	294.975
749.355	287.550
749.483	290.425
749.612	290.437
749.740	285.775
749.868	290.325
749.996	288.762
750.124	287.288
750.252	292.575
750.380	287.625
750.508	287.825
750.637	285.400
750.765	290.113
750.893	284.100
751.021	286.625
751.149	289.675
751.277	293.512
751.405	294.837
751.533	293.212
751.662	289.225
751.790	300.225
751.918	302.825
752.046	287.300
752.174	277.913
752.302	284.562
752.430	291.200
752.558	279.062
752.687	280.500
752.815	289.462
752.943	285.075
753.071	271.762
753.199	274.425
753.327	286.962
753.455	275.712
753.583	273.562
753.712	276.163
753.840	271.225
753.968	272.250
754.096	272.400
754.224	277.337
754.352	268.538
754.480	270.925
754.608	269.400
754.737	268.863
754.865	272.500
754.993	274.837
755.121	265.288
755.249	279.363
755.377	266.113
755.505	263.462
755.633	283.137
755.762	269.975
755.890	280.475
756.018	268.087
756.146	267.725
756.274	269.650
756.402	258.712
756.530	263.975
756.658	273.387
756.787	263.137
756.915	256.712
757.043	262.925
757.171	262.775
757.299	262.800
757.427	263.250
757.555	261.025
757.683	263.288
757.812	260.363
757.940	260.937
758.068	253.912
758.196	251.963
758.324	257.750
758.452	253.550
758.580	250.287
758.708	257.288
758.837	253.812
758.965	267.975
759.093	258.212
759.221	248.662
759.349	257.375
759.477	248.550
759.605	255.062
759.733	251.575
759.862	259.200
759.990	249.963
760.118	255.850
760.246	250.338
760.374	249.725
760.502	250.150
760.630	250.675
760.758	241.300
760.887	234.825
761.015	239.800
761.143	247.650
761.271	241.387
761.399	245.200
761.527	240.450
761.655	240.088
761.783	243.500
761.912	237.050
762.040	240.488
762.168	239.187
762.296	234.387
762.424	235.537
762.552	236.900
762.680	241.937
762.808	236.537
762.937	240.500
763.065	240.775
763.193	236.650
763.321	233.075
763.449	231.312
763.577	233.175
763.705	239.500
763.833	256.562
763.962	225.537
764.090	233.800
764.218	231.325
764.346	234.387
764.474	229.350
764.602	226.550
764.730	227.912
764.858	231.838
764.987	234.363
765.115	234.062
765.243	242.512
765.371	227.062
765.499	219.275
765.627	222.387
765.755	222.787
765.883	220.475
766.012	223.825
766.140	221.675
766.268	220.262
766.396	220.637
766.524	219.488
766.652	221.912
766.780	209.325
766.908	225.450
767.037	220.262
767.165	216.387
767.293	222.850
767.421	219.350
767.549	216.588
767.677	225.325
767.805	216.113
767.933	222.738
768.062	220.675
768.190	217.887
768.318	218.150
768.446	231.537
768.574	227.137
768.702	222.037
768.830	215.863
768.958	212.187
769.087	222.963
769.215	216.450
769.343	214.325
769.471	217.537
769.599	216.062
769.727	214.838
769.855	218.113
769.983	215.338
770.112	216.350
770.240	217.838
770.368	214.062
770.496	210.012
770.624	213.400
770.752	216.025
770.880	225.600
771.008	213.062
771.137	212.925
771.265	218.463
771.393	215.550
771.521	213.575
771.649	210.062
771.777	211.875
771.905	213.863
772.033	214.387
772.162	215.012
772.290	217.325
772.418	220.687
772.546	211.025
772.674	204.588
772.802	213.963
772.930	212.425
773.058	209.225
773.187	214.463
773.315	211.775
773.443	209.600
773.571	206.625
773.699	204.012
773.827	206.050
773.955	210.200
774.083	221.437
774.212	210.762
774.340	208.113
774.468	209.975
774.596	208.450
774.724	212.400
774.852	200.475
774.980	210.850
775.108	209.637
775.237	202.675
775.365	200.213
775.493	205.012
775.621	206.200
775.749	206.113
775.877	208.025
776.005	203.550
776.133	213.500
776.262	210.675
776.390	200.062
776.518	213.488
776.646	204.700
776.774	202.912
776.902	207.050
777.030	203.012
777.158	207.088
777.287	207.838
777.415	205.200
777.543	205.412
777.671	205.588
777.799	196.675
777.927	205.162
778.055	204.963
778.183	205.262
778.312	194.238
778.440	203.637
778.568	201.937
778.696	201.025
778.824	201.637
778.952	202.937
779.080	204.062
779.208	206.988
779.337	205.312
779.465	205.125
779.593	202.912
779.721	206.200
779.849	201.838
779.977	207.012
780.105	199.088
780.233	201.800
780.362	205.812
780.490	204.012
780.618	200.450
780.746	197.125
780.874	199.812
781.002	194.225
781.130	197.825
781.258	193.975
781.387	200.463
781.515	195.137
781.643	196.650
781.771	202.625
781.899	201.800
782.027	197.450
782.155	198.062
782.283	192.300
782.412	201.588
782.540	201.863
782.668	198.088
782.796	196.262
782.924	196.537
783.052	190.850
783.180	198.287
783.308	194.550
783.437	202.550
783.565	198.287
783.693	198.500
783.821	198.050
783.949	190.600
784.077	196.113
784.205	199.562
784.333	203.287
784.462	188.850
784.590	196.838
784.718	195.363
784.846	192.588
784.974	196.162
785.102	204.650
785.230	195.512
785.358	204.088
785.487	197.775
785.615	195.100
785.743	188.338
785.871	189.225
785.999	198.550
786.127	188.463
786.255	199.175
786.383	197.062
786.512	192.000
786.640	191.000
786.768	196.300
786.896	191.012
787.024	192.238
787.152	189.238
787.280	184.037
787.408	186.213
787.537	192.950
787.665	194.850
787.793	194.062
787.921	193.137
788.049	185.825
788.177	182.425
788.305	189.225
788.433	191.275
788.562	190.025
788.690	186.325
788.818	187.937
788.946	186.488
789.074	187.338
789.202	184.887
789.330	191.162
789.458	185.300
789.587	184.762
789.715	191.925
789.843	191.213
789.971	184.400
790.099	184.600
790.227	186.900
790.355	181.488
790.483	188.738
790.612	186.588
790.740	186.988
790.868	194.900
790.996	186.450
791.124	186.625
791.252	183.162
791.380	188.800
791.508	184.525
791.637	193.988
791.765	180.287
791.893	186.000
792.021	190.625
792.149	180.262
792.277	182.637
792.405	187.162
792.533	188.400
792.662	178.787
792.790	181.325
792.918	186.262
793.046	177.950
793.174	183.262
793.302	185.637
793.430	183.062
793.558	189.400
793.687	178.775
793.815	183.213
793.943	181.825
794.071	183.750
794.199	176.100
794.327	181.075
794.455	196.650
794.583	196.988
794.712	185.238
794.840	181.850
794.968	176.012
795.096	186.037
795.224	179.838
795.352	171.762
795.480	182.338
795.608	180.512
795.737	183.312
795.865	176.500
795.993	175.687
796.121	175.050
796.249	181.325
796.377	180.162
796.505	178.463
796.633	181.162
796.762	172.062
796.890	183.762
797.018	179.137
797.146	172.863
797.274	173.975
797.402	177.500
797.530	173.387
797.658	175.550
797.787	179.675
797.915	175.412
798.043	180.488
798.171	178.250
798.299	171.000
798.427	176.238
798.555	175.387
798.683	170.863
798.812	175.412
798.940	172.100
799.068	177.375
799.196	178.287
799.324	171.662
799.452	180.950
799.580	169.037
799.708	184.988
799.837	167.287
799.965	164.825
800.093	171.662
800.221	170.762
800.349	179.350
800.477	173.875
800.605	171.750
800.733	176.437
800.862	172.812
800.990	184.725
801.118	172.662
801.246	168.988
801.374	170.700
801.502	174.238
801.630	166.113
801.758	169.687
801.887	175.562
802.015	169.475
802.143	171.912
802.271	172.662
802.399	170.387
802.527	171.775
802.655	173.562
802.783	176.375
802.912	170.625
803.040	165.613
803.168	167.662
803.296	164.562
803.424	166.512
803.552	167.825
803.680	162.975
803.808	166.850
803.937	164.338
804.065	164.387
804.193	163.137
804.321	178.900
804.449	162.500
804.577	165.338
804.705	166.238
804.833	168.113
804.962	164.613
805.090	160.350
805.218	171.037
805.346	165.262
805.474	166.200
805.602	176.363
805.730	165.312
805.858	162.037
805.987	171.225
806.115	171.475
806.243	168.137
806.371	159.137
806.499	163.175
806.627	156.550
806.755	169.400
806.883	161.338
807.012	163.600
807.140	162.262
807.268	165.312
807.396	163.825
807.524	157.375
807.652	161.437
807.780	174.687
807.908	161.075
808.037	166.687
808.165	163.850
808.293	162.875
808.421	170.562
808.549	156.325
808.677	158.350
808.805	172.463
808.933	159.350
809.062	161.137
809.190	174.700
809.318	164.425
809.446	160.025
809.574	171.850
809.702	164.787
809.830	159.488
809.958	163.412
810.087	160.150
810.215	166.750
810.343	169.537
810.471	164.312
810.599	157.037
810.727	159.500
810.855	155.500
810.983	157.800
811.112	159.937
811.240	159.988
811.368	159.662
811.496	166.037
811.624	162.825
811.752	155.463
811.880	155.912
812.008	150.863
812.137	159.613
812.265	153.662
812.393	159.400
812.521	160.025
812.649	159.812
812.777	160.338
812.905	159.650
813.033	152.875
813.162	153.450
813.290	155.675
813.418	163.225
813.546	157.600
813.674	154.937
813.802	161.500
813.930	150.863
814.058	147.750
814.187	155.800
814.315	155.425
814.443	156.325
814.571	148.825
814.699	163.500
814.827	153.475
814.955	158.238
815.083	153.312
815.212	156.062
815.340	151.250
815.468	150.050
815.596	154.800
815.724	153.262
815.852	155.713
815.980	147.125
816.108	156.250
816.237	154.363
816.365	157.463
816.493	158.025
816.621	150.262
816.749	150.775
816.877	152.762
817.005	155.387
817.133	149.937
817.262	149.363
817.390	160.325
817.518	151.950
817.646	153.863
817.774	148.437
817.902	151.625
818.030	146.463
818.158	153.300
818.287	154.238
818.415	146.875
818.543	146.575
818.671	156.137
818.799	149.225
818.927	156.463
819.055	146.300
819.183	148.950
819.312	150.312
819.440	156.062
819.568	148.125
819.696	157.050
819.824	151.975
819.952	148.500
820.080	151.463
820.208	148.350
820.337	147.238
820.465	154.113
820.593	148.238
820.721	148.225
820.849	147.325
820.977	145.800
821.105	152.375
821.233	141.875
821.362	158.588
821.490	147.488
821.618	143.900
821.746	145.350
821.874	147.187
822.002	147.225
822.130	145.075
822.258	144.512
822.387	147.250
822.515	150.387
822.643	146.738
822.771	146.762
822.899	143.150
823.027	151.213
823.155	139.775
823.283	142.625
823.412	149.725
823.540	143.812
823.668	162.287
823.796	144.050
823.924	153.437
824.052	148.787
824.180	144.075
824.308	147.400
824.437	148.525
824.565	143.537
824.693	145.912
824.821	143.750
824.949	145.562
825.077	149.550
825.205	150.912
825.333	144.213
825.462	150.213
825.590	139.100
825.718	145.863
825.846	145.725
825.974	148.113
826.102	147.325
826.230	145.125
826.358	146.950
826.487	144.988
826.615	150.375
826.743	140.238
826.871	149.488
826.999	150.925
827.127	143.175
827.255	144.738
827.383	138.850
827.512	150.713
827.640	144.238
827.768	141.000
827.896	141.787
828.024	143.225
828.152	141.750
828.280	143.437
828.408	140.562
828.537	144.075
828.665	143.137
828.793	142.988
828.921	140.687
829.049	142.863
829.177	139.575
829.305	134.900
829.433	139.187
829.562	140.088
829.690	140.400
829.818	141.287
829.946	143.275
830.074	137.113
830.202	144.012
830.330	139.488
830.458	146.963
830.587	138.838
830.715	136.650
830.843	139.225
830.971	143.075
831.099	141.825
831.227	136.088
831.355	139.450
831.483	138.887
831.612	141.912
831.740	139.213
831.868	152.150
831.996	135.088
832.124	141.988
832.252	134.600
832.380	142.450
832.508	146.387
832.637	139.400
832.765	140.137
832.893	144.162
833.021	140.012
833.149	135.500
833.277	136.062
833.405	135.525
833.533	139.175
833.662	137.675
833.790	138.037
833.918	142.700
834.046	141.912
834.174	141.713
834.302	136.637
834.430	132.425
834.558	146.738
834.687	140.012
834.815	137.687
834.943	138.713
835.071	132.662
835.199	140.125
835.327	141.850
835.455	128.725
835.583	145.825
835.712	134.550
835.840	138.925
835.968	135.363
836.096	146.250
836.224	142.875
836.352	133.787
836.480	138.875
836.608	143.412
836.737	133.738
836.865	133.562
836.993	134.375
837.121	135.988
837.249	134.662
837.377	138.312
837.505	136.575
837.633	136.887
837.762	128.738
837.890	138.275
838.018	140.738
838.146	144.400
838.274	136.387
838.402	140.575
838.530	133.375
838.658	127.175
838.787	136.787
838.915	138.275
839.043	132.925
839.171	142.925
839.299	136.850
839.427	132.800
839.555	143.725
839.683	139.213
839.812	132.988
839.940	134.912
840.068	137.637
840.196	134.412
840.324	133.550
840.452	138.437
840.580	139.437
840.708	133.175
840.837	138.312
840.965	132.075
841.093	137.713
841.221	136.525
841.349	144.238
841.477	136.375
841.605	135.762
841.733	132.525
841.862	136.488
841.990	139.275
842.118	130.437
842.246	129.300
842.374	127.588
842.502	130.287
842.630	133.988
842.758	136.562
842.887	130.887
843.015	132.787
843.143	136.575
843.271	132.812
843.399	135.050
843.527	128.537
843.655	129.588
843.783	133.450
843.912	129.425
844.040	139.425
844.168	136.762
844.296	135.550
844.424	133.613
844.552	133.225
844.680	137.463
844.808	139.213
844.937	131.838
845.065	133.488
845.193	135.800
845.321	132.838
845.449	128.525
845.577	131.950
845.705	129.613
845.833	131.387
845.962	127.338
846.090	128.900
846.218	136.700
846.346	135.687
846.474	130.512
846.602	126.912
846.730	137.113
846.858	131.838
846.987	129.475
847.115	127.575
847.243	132.113
847.371	138.550
847.499	126.138
847.627	130.463
847.755	125.737
847.883	132.600
848.012	134.162
848.140	130.187
848.268	131.500
848.396	129.875
848.524	133.162
848.652	124.362
848.780	125.850
848.908	135.750
849.037	128.250
849.165	130.338
849.293	128.838
849.421	135.713
849.549	128.650
849.677	133.725
849.805	129.200
849.933	133.363
850.062	128.588
850.190	126.425
850.318	127.638
850.446	126.937
850.574	125.263
850.702	127.713
850.830	125.437
850.958	135.287
851.087	130.137
851.215	134.687
851.343	125.912
851.471	124.000
851.599	129.588
851.727	125.725
851.855	128.787
851.983	129.550
852.112	126.900
852.240	128.725
852.368	123.575
852.496	124.862
852.624	124.737
852.752	126.400
852.880	122.475
853.008	127.900
853.137	136.475
853.265	127.225
853.393	130.225
853.521	130.450
853.649	134.963
853.777	123.662
853.905	127.487
854.033	138.838
854.162	133.850
854.290	127.162
854.418	124.125
854.546	125.150
854.674	145.200
854.802	126.263
854.930	123.862
855.058	122.950
855.187	123.662
855.315	129.713
855.443	163.625
855.571	118.100
855.699	122.700
855.827	122.625
855.955	122.888
856.083	121.562
856.212	133.588
856.340	122.850
856.468	129.400
856.596	124.687
856.724	126.725
856.852	121.350
856.980	119.687
857.108	124.388
857.237	123.037
857.365	124.263
857.493	124.588
857.621	117.000
857.749	121.338
857.877	125.412
858.005	125.362
858.133	124.888
858.262	120.088
858.390	118.187
858.518	116.838
858.646	122.550
858.774	124.300
858.902	119.213
859.030	125.338
859.158	122.037
859.287	129.062
859.415	126.213
859.543	120.937
859.671	125.963
859.799	122.862
859.927	123.050
860.055	123.525
860.183	119.437
860.312	120.200
860.440	117.912
860.568	125.750
860.696	120.987
860.824	129.775
860.952	119.888
861.080	123.612
861.208	125.912
861.337	123.937
861.465	123.875
861.593	127.062
861.721	123.325
861.849	119.987
861.977	118.025
862.105	123.013
862.233	123.437
862.362	123.275
862.490	118.838
862.618	123.300
862.746	118.612
862.874	120.550
863.002	120.075
863.130	127.388
863.258	121.625
863.387	122.300
863.515	125.888
863.643	118.638
863.771	119.950
863.899	122.787
864.027	119.487
864.155	117.737
864.283	120.562
864.412	118.350
864.540	116.812
864.668	115.862
864.796	119.838
864.924	117.750
865.052	117.725
865.180	117.450
865.308	114.437
865.437	116.000
865.565	119.625
865.693	127.150
865.821	118.062
865.949	120.287
866.077	117.187
866.205	117.350
866.333	118.588
866.462	117.600
866.590	118.700
866.718	120.375
866.846	115.437
866.974	123.125
867.102	122.787
867.230	124.075
867.358	120.013
867.487	119.600
867.615	117.925
867.743	116.725
867.871	120.650
867.999	121.112
868.127	118.338
868.255	127.187
868.383	122.550
868.512	114.713
868.640	117.600
868.768	116.937
868.896	117.388
869.024	125.037
869.152	127.487
869.280	117.275
869.408	121.437
869.537	117.400
869.665	126.638
869.793	114.475
869.921	118.600
870.049	118.112
870.177	114.687
870.305	123.487
870.433	118.162
870.562	114.987
870.690	115.138
870.818	114.825
870.946	116.175
871.074	112.675
871.202	114.650
871.330	113.213
871.458	113.437
871.587	113.575
871.715	113.025
871.843	113.912
871.971	117.200
872.099	116.650
872.227	112.112
872.355	113.500
872.483	121.650
872.612	114.275
872.740	115.725
872.868	113.000
872.996	115.713
873.124	116.700
873.252	119.287
873.380	117.362
873.508	115.525
873.637	112.675
873.765	117.450
873.893	116.737
874.021	117.963
874.149	115.088
874.277	115.263
874.405	119.000
874.533	117.037
874.662	327.075
874.790	120.650
874.918	120.287
875.046	115.763
875.174	112.375
875.302	110.463
875.430	111.750
875.558	111.537
875.687	116.263
875.815	114.975
875.943	112.588
876.071	114.987
876.199	113.912
876.327	117.300
876.455	114.862
876.583	118.725
876.712	117.450
876.840	112.250
876.968	111.388
877.096	112.500
877.224	110.975
877.352	107.763
877.480	111.537
877.608	109.287
877.737	113.388
877.865	114.088
877.993	116.888
878.121	111.987
878.249	113.650
878.377	111.862
878.505	108.125
878.633	110.412
878.762	110.763
878.890	115.225
879.018	112.200
879.146	116.450
879.274	111.763
879.402	113.037
879.530	111.425
879.658	115.325
879.787	114.925
879.915	115.375
880.043	112.950
880.171	112.225
880.299	111.687
880.427	119.763
880.555	116.437
880.683	115.825
880.812	109.963
880.940	110.662
881.068	111.437
881.196	110.362
881.324	113.287
881.452	110.037
881.580	113.050
881.708	115.287
881.837	112.025
881.965	107.562
882.093	109.638
882.221	109.725
882.349	114.338
882.477	116.675
882.605	117.437
882.733	111.562
882.862	107.612
882.990	110.838
883.118	112.025
883.246	118.187
883.374	113.537
883.502	109.300
883.630	106.850
883.758	110.525
883.887	108.175
884.015	106.275
884.143	109.025
884.271	110.900
884.399	111.300
884.527	111.287
884.655	110.875
884.783	109.963
884.912	110.713
885.040	107.513
885.168	106.225
885.296	109.912
885.424	109.375
885.552	116.325
885.680	109.825
885.808	110.400
885.937	112.062
886.065	110.737
886.193	107.075
886.321	107.213
886.449	108.638
886.577	113.550
886.705	108.862
886.833	109.150
886.962	108.487
887.090	110.088
887.218	107.225
887.346	109.725
887.474	118.213
887.602	113.375
887.730	112.612
887.858	118.350
887.987	109.638
888.115	118.075
888.243	114.175
888.371	110.287
888.499	108.625
888.627	108.912
888.755	109.950
888.883	108.350
889.012	108.612
889.140	112.088
889.268	116.312
889.396	120.125
889.524	110.013
889.652	110.875
889.780	110.375
889.908	106.812
890.037	108.713
890.165	111.200
890.293	112.763
890.421	117.937
890.549	109.050
890.677	109.287
890.805	110.125
890.933	109.775
891.062	107.750
891.190	115.625
891.318	112.362
891.446	109.463
891.574	105.550
891.702	106.700
891.830	106.150
891.958	111.250
892.087	114.112
892.215	110.838
892.343	109.575
892.471	108.350
892.599	108.362
892.727	114.088
892.855	110.225
892.983	108.350
893.112	107.437
893.240	108.600
893.368	110.513
893.496	109.175
893.624	109.375
893.752	112.412
893.880	112.112
894.008	112.950
894.137	111.513
894.265	112.638
894.393	113.388
894.521	111.375
894.649	109.963
894.777	106.013
894.905	105.812
895.033	114.237
895.162	111.862
895.290	116.350
895.418	110.425
895.546	111.713
895.674	114.713
895.802	110.912
895.930	107.825
896.058	106.463
896.187	106.662
896.315	106.625
896.443	108.713
896.571	108.937
896.699	108.025
896.827	106.412
896.955	106.888
897.083	108.450
897.212	112.675
897.340	105.588
897.468	107.312
897.596	108.775
897.724	108.463
897.852	116.638
897.980	110.400
898.108	106.912
898.237	106.437
898.365	108.013
898.493	107.263
898.621	112.763
898.749	109.437
898.877	110.213
899.005	105.150
899.133	107.925
899.262	107.213
899.390	109.787
899.518	110.013
899.646	107.088
899.774	113.912
899.902	114.725
900.030	106.287
900.158	107.650
900.287	109.638
900.415	106.963
900.543	106.950
900.671	115.588
900.799	108.638
900.927	110.737
901.055	109.963
901.183	110.737
901.312	107.950
901.440	111.037
901.568	110.625
901.696	109.412
901.824	107.925
901.952	114.513
902.080	113.763
902.208	110.450
902.337	107.412
902.465	110.787
902.593	110.037
902.721	111.737
902.849	107.775
902.977	107.325
903.105	111.812
903.233	114.825
903.362	111.500
903.490	108.013
903.618	105.662
903.746	111.150
903.874	109.763
904.002	110.075
904.130	110.175
904.258	110.787
904.387	108.037
904.515	104.150
904.643	106.213
904.771	104.675
904.899	110.950
905.027	110.875
905.155	103.412
905.283	106.338
905.412	113.437
905.540	110.437
905.668	108.162
905.796	103.650
905.924	106.525
906.052	107.375
906.180	107.225
906.308	113.412
906.437	111.537
906.565	112.888
906.693	109.263
906.821	105.838
906.949	107.112
907.077	109.900
907.205	114.362
907.333	109.437
907.462	109.037
907.590	110.175
907.718	112.213
907.846	108.725
907.974	109.575
908.102	109.812
908.230	110.638
908.358	114.525
908.487	109.125
908.615	110.750
908.743	112.225
908.871	111.900
908.999	111.037
909.127	107.187
909.255	108.537
909.383	109.000
909.512	113.725
909.640	110.600
909.768	111.450
909.896	117.825
910.024	114.737
910.152	109.450
910.280	117.475
910.408	110.925
910.537	112.838
910.665	116.100
910.793	112.350
910.921	115.775
911.049	111.562
911.177	110.275
911.305	112.312
911.433	108.662
911.562	109.088
911.690	111.937
911.818	121.725
911.946	111.787
912.074	112.625
912.202	112.437
912.330	113.350
912.458	114.487
912.587	115.350
912.715	119.513
912.843	112.200
912.971	111.700
913.099	112.625
913.227	113.138
913.355	117.388
913.483	114.350
913.612	114.700
913.740	127.237
913.868	114.450
