sample10_PP_at_750.00nm_cut_at_1008.00Y_01.dat
15.05.2023
11:07:55
cut middle at Y: 1008.00
top cursor: 1048 down cursor: 968 mean of: 80 lines , 2560 datapoints
wavelength(nm)	intensity[arb. units]
585.996	1718.075
586.124	1702.412
586.252	1718.638
586.380	1718.175
586.508	1741.412
586.637	1735.775
586.765	1733.475
586.893	1764.200
587.021	1771.312
587.149	1773.487
587.277	1783.200
587.405	1800.112
587.533	1783.662
587.662	1811.412
587.790	1825.487
587.918	1813.362
588.046	1823.075
588.174	1817.638
588.302	1840.850
588.430	1828.650
588.558	1855.062
588.687	1851.725
588.815	1879.800
588.943	1869.912
589.071	1877.475
589.199	1899.250
589.327	1876.050
589.455	1882.763
589.583	1906.412
589.712	1919.725
589.840	1914.500
589.968	1904.950
590.096	1930.388
590.224	1945.412
590.352	1945.775
590.480	1950.838
590.608	1971.513
590.737	1954.437
590.865	1973.037
590.993	1968.500
591.121	1991.775
591.249	1999.037
591.377	1991.562
591.505	2006.388
591.633	2021.088
591.762	2021.975
591.890	2039.925
592.018	2050.050
592.146	2064.825
592.274	2074.812
592.402	2084.525
592.530	2074.700
592.658	2113.287
592.787	2108.988
592.915	2098.988
593.043	2128.562
593.171	2138.363
593.299	2173.238
593.427	2150.575
593.555	2173.887
593.683	2180.400
593.812	2193.713
593.940	2220.700
594.068	2217.225
594.196	2257.075
594.324	2235.125
594.452	2267.425
594.580	2280.375
594.708	2275.675
594.837	2299.088
594.965	2317.963
595.093	2326.937
595.221	2334.863
595.349	2387.125
595.477	2345.838
595.605	2370.875
595.733	2406.175
595.862	2446.187
595.990	2402.525
596.118	2419.050
596.246	2470.800
596.374	2472.450
596.502	2453.575
596.630	2485.150
596.758	2479.937
596.887	2506.150
597.015	2519.912
597.143	2481.912
597.271	2512.662
597.399	2522.775
597.527	2538.750
597.655	2564.175
597.783	2547.750
597.912	2570.037
598.040	2591.363
598.168	2633.425
598.296	2570.687
598.424	2616.463
598.552	2632.762
598.680	2603.838
598.808	2714.825
598.937	2649.525
599.065	2657.075
599.193	2730.175
599.321	2743.137
599.449	2655.850
599.577	2665.825
599.705	2757.887
599.833	2684.537
599.962	2698.125
600.090	2763.363
600.218	2757.988
600.346	2819.787
600.474	2729.150
600.602	2746.325
600.730	2773.925
600.858	2762.213
600.987	2958.575
601.115	2795.863
601.243	2834.850
601.371	2831.550
601.499	2827.187
601.627	2871.050
601.755	2859.537
601.883	2917.775
602.012	2907.550
602.140	2879.875
602.268	3036.025
602.396	2950.662
602.524	2978.113
602.652	2982.250
602.780	3013.262
602.908	3046.325
603.037	3107.275
603.165	3090.037
603.293	3099.400
603.421	3120.700
603.549	3145.800
603.677	3212.150
603.805	3169.375
603.933	3235.275
604.062	3313.075
604.190	3278.650
604.318	3289.213
604.446	3287.125
604.574	3342.550
604.702	3358.050
604.830	3371.812
604.958	3389.950
605.087	3436.012
605.215	3458.925
605.343	3433.187
605.471	3529.400
605.599	3520.975
605.727	3533.137
605.855	3556.900
605.983	3566.338
606.112	3574.775
606.240	3629.137
606.368	3646.387
606.496	3819.988
606.624	3673.012
606.752	3740.975
606.880	3861.363
607.008	3951.625
607.137	3914.287
607.265	3770.100
607.393	3828.588
607.521	3918.437
607.649	3829.900
607.777	3890.662
607.905	3925.162
608.033	3952.037
608.162	3890.387
608.290	3980.950
608.418	3932.925
608.546	4011.562
608.674	4040.725
608.802	3976.863
608.930	4000.675
609.058	4016.800
609.187	4069.900
609.315	4091.738
609.443	4050.187
609.571	4164.100
609.699	4088.350
609.827	4130.238
609.955	4159.462
610.083	4137.750
610.212	4157.650
610.340	4171.525
610.468	4289.687
610.596	4265.913
610.724	4300.050
610.852	4250.025
610.980	4295.650
611.108	4369.500
611.237	4283.600
611.365	4320.663
611.493	4315.450
611.621	4356.187
611.749	4376.475
611.877	4436.275
612.005	4435.937
612.133	4491.788
612.262	4460.525
612.390	4476.863
612.518	4522.762
612.646	4638.475
612.774	4556.575
612.902	4558.675
613.030	4610.312
613.158	4718.700
613.287	4704.113
613.415	4669.913
613.543	4678.437
613.671	4711.850
613.799	4817.775
613.927	4811.900
614.055	4792.038
614.183	4950.387
614.312	4820.250
614.440	4996.962
614.568	4902.437
614.696	4933.613
614.824	5129.600
614.952	5026.137
615.080	5022.400
615.208	5055.075
615.337	5075.800
615.465	5089.000
615.593	5132.738
615.721	5206.250
615.849	5240.275
615.977	5239.725
616.105	5318.837
616.233	5278.113
616.362	5358.500
616.490	5303.050
616.618	5341.825
616.746	5451.800
616.874	5484.363
617.002	5433.100
617.130	5515.025
617.258	5663.663
617.387	5560.988
617.515	5545.512
617.643	5569.613
617.771	5662.700
617.899	5683.375
618.027	5640.812
618.155	5785.413
618.283	5674.312
618.412	5735.312
618.540	5817.587
618.668	5795.587
618.796	5802.262
618.924	5908.550
619.052	5831.038
619.180	5819.288
619.308	5892.300
619.437	5907.137
619.565	5915.800
619.693	5920.012
619.821	5954.788
619.949	5941.175
620.077	6018.950
620.205	6002.825
620.333	6028.700
620.462	6084.437
620.590	6143.262
620.718	6062.312
620.846	6203.738
620.974	6188.250
621.102	6160.825
621.230	6150.150
621.358	6281.837
621.487	6204.738
621.615	6215.750
621.743	6277.637
621.871	6264.400
621.999	6329.250
622.127	6286.125
622.255	6352.988
622.383	6353.363
622.512	6365.512
622.640	6529.913
622.768	6365.500
622.896	6379.375
623.024	6415.413
623.152	6534.062
623.280	6517.363
623.408	6458.962
623.537	6497.325
623.665	6497.262
623.793	6566.250
623.921	6567.512
624.049	6586.525
624.177	6599.163
624.305	6661.312
624.433	6628.712
624.562	6675.550
624.690	6699.500
624.818	6731.512
624.946	6905.363
625.074	6779.387
625.202	6759.462
625.330	6742.212
625.458	6848.000
625.587	6817.625
625.715	6882.113
625.843	6970.725
625.971	6889.113
626.099	6887.375
626.227	6867.650
626.355	6882.712
626.483	6999.437
626.612	6868.150
626.740	6918.475
626.868	6985.300
626.996	6961.387
627.124	6992.200
627.252	7004.350
627.380	7044.437
627.508	7047.050
627.637	7004.988
627.765	7052.175
627.893	7089.050
628.021	7093.212
628.149	7139.687
628.277	7149.187
628.405	7216.400
628.533	7159.038
628.662	7218.275
628.790	7164.387
628.918	7206.837
629.046	7197.150
629.174	7224.300
629.302	7358.962
629.430	7240.488
629.558	7309.488
629.687	7309.775
629.815	7355.437
629.943	7389.075
630.071	7401.712
630.199	7423.700
630.327	7428.562
630.455	7408.312
630.583	7505.337
630.712	7476.975
630.840	7475.700
630.968	7541.550
631.096	7485.262
631.224	7507.288
631.352	7537.625
631.480	7590.512
631.608	7587.812
631.737	7693.613
631.865	7784.275
631.993	7629.625
632.121	7744.962
632.249	7726.663
632.377	7700.587
632.505	7758.775
632.633	7640.038
632.762	7752.650
632.890	7859.000
633.018	7703.750
633.146	7802.175
633.274	7808.975
633.402	7790.800
633.530	7749.988
633.658	7906.413
633.787	7725.975
633.915	7850.687
634.043	7798.025
634.171	7786.637
634.299	7837.125
634.427	7877.988
634.555	7809.850
634.683	7778.137
634.812	7786.025
634.940	7782.437
635.068	7759.850
635.196	7807.075
635.324	7808.337
635.452	7852.413
635.580	7754.687
635.708	7723.900
635.837	7814.113
635.965	7770.925
636.093	7722.600
636.221	7705.488
636.349	7775.038
636.477	7659.725
636.605	7832.850
636.733	7606.475
636.862	7632.625
636.990	7617.712
637.118	7693.712
637.246	7679.600
637.374	7600.488
637.502	7571.025
637.630	7540.425
637.758	7579.262
637.887	7520.100
638.015	7536.375
638.143	7515.887
638.271	7524.238
638.399	7481.163
638.527	7491.350
638.655	7421.337
638.783	7619.275
638.912	7453.637
639.040	7427.600
639.168	7481.375
639.296	7418.363
639.424	7536.038
639.552	7402.050
639.680	7404.462
639.808	7420.262
639.937	7364.038
640.065	7357.587
640.193	7440.312
640.321	7345.113
640.449	7400.812
640.577	7467.488
640.705	7355.750
640.833	7462.900
640.962	7310.062
641.090	7316.062
641.218	7279.225
641.346	7308.825
641.474	7338.225
641.602	7292.075
641.730	7256.850
641.858	7269.387
641.987	7300.200
642.115	7247.725
642.243	7286.450
642.371	7267.413
642.499	7247.613
642.627	7270.262
642.755	7309.950
642.883	7301.975
643.012	7266.000
643.140	7217.788
643.268	7220.725
643.396	7237.788
643.524	7341.962
643.652	7194.750
643.780	7212.163
643.908	7207.538
644.037	7327.337
644.165	7169.300
644.293	7187.925
644.421	7164.125
644.549	7235.488
644.677	7156.375
644.805	7156.750
644.933	7080.887
645.062	7110.163
645.190	7102.687
645.318	7190.012
645.446	7105.288
645.574	7091.550
645.702	7034.762
645.830	7229.500
645.958	7026.975
646.087	7215.825
646.215	7001.025
646.343	7190.625
646.471	7020.225
646.599	7039.675
646.727	6947.337
646.855	6977.062
646.983	6964.200
647.112	6918.700
647.240	7045.575
647.368	6888.750
647.496	6944.200
647.624	6824.637
647.752	6853.637
647.880	6827.087
648.008	6802.150
648.137	6784.187
648.265	6750.150
648.393	6736.125
648.521	6721.738
648.649	6740.275
648.777	6734.087
648.905	6648.825
649.033	6636.800
649.162	6627.875
649.290	6605.125
649.418	6590.212
649.546	6602.525
649.674	6614.425
649.802	6504.350
649.930	6624.825
650.058	6439.812
650.187	6427.488
650.315	6381.650
650.443	6437.300
650.571	6311.812
650.699	6312.462
650.827	6283.875
650.955	6275.587
651.083	6256.975
651.212	6302.525
651.340	6286.413
651.468	6184.975
651.596	6144.663
651.724	6105.512
651.852	6103.413
651.980	6050.038
652.108	6129.687
652.237	6043.363
652.365	6090.637
652.493	5961.613
652.621	5938.425
652.749	5992.187
652.877	5882.875
653.005	5888.913
653.133	5840.875
653.262	5880.300
653.390	5781.113
653.518	5891.475
653.646	5759.600
653.774	5912.050
653.902	5739.225
654.030	5654.375
654.158	5660.125
654.287	5629.837
654.415	5661.750
654.543	5605.225
654.671	5625.525
654.799	5576.175
654.927	5474.488
655.055	5506.212
655.183	5481.187
655.312	5453.837
655.440	5456.288
655.568	5387.488
655.696	5457.900
655.824	5472.200
655.952	5343.125
656.080	5283.700
656.208	5438.725
656.337	5260.738
656.465	5277.012
656.593	5276.150
656.721	5220.100
656.849	5266.312
656.977	5170.925
657.105	5167.687
657.233	5117.538
657.362	5073.538
657.490	5058.475
657.618	5056.812
657.746	5040.262
657.874	4996.750
658.002	4973.050
658.130	4945.425
658.258	4914.937
658.387	4915.575
658.515	4864.800
658.643	4926.113
658.771	4834.825
658.899	4855.675
659.027	4816.613
659.155	4813.012
659.283	4940.875
659.412	4782.012
659.540	4852.025
659.668	4683.275
659.796	4712.575
659.924	4755.488
660.052	4633.488
660.180	4639.625
660.308	4630.238
660.437	4599.387
660.565	4556.762
660.693	4526.762
660.821	4522.225
660.949	4509.262
661.077	4475.387
661.205	4464.350
661.333	4417.875
661.462	4536.500
661.590	4434.212
661.718	4583.413
661.846	4467.087
661.974	4528.875
662.102	4354.800
662.230	4368.450
662.358	4313.113
662.487	4301.175
662.615	4257.050
662.743	4230.800
662.871	4235.475
662.999	4211.413
663.127	4185.762
663.255	4279.687
663.383	4272.775
663.512	4127.300
663.640	4147.200
663.768	4095.387
663.896	4108.562
664.024	4132.562
664.152	4066.463
664.280	4083.800
664.408	4038.012
664.537	4076.700
664.665	3945.250
664.793	3926.600
664.921	3927.075
665.049	3940.838
665.177	3913.775
665.305	3933.550
665.433	3885.925
665.562	3831.262
665.690	3861.325
665.818	4011.750
665.946	3825.450
666.074	3781.838
666.202	3772.187
666.330	3791.088
666.458	3748.275
666.587	3687.525
666.715	3730.062
666.843	3657.338
666.971	3644.700
667.099	3677.512
667.227	3614.975
667.355	3623.400
667.483	3585.363
667.612	3598.575
667.740	3591.850
667.868	3619.100
667.996	3552.650
668.124	3481.475
668.252	3475.375
668.380	3479.125
668.508	3471.250
668.637	3447.725
668.765	3402.537
668.893	3457.175
669.021	3380.150
669.149	3439.725
669.277	3416.675
669.405	3337.400
669.533	3334.150
669.662	3552.025
669.790	3300.425
669.918	3366.537
670.046	3265.637
670.174	3325.963
670.302	3302.713
670.430	3240.037
670.558	3263.825
670.687	3172.675
670.815	3335.363
670.943	3144.838
671.071	3126.137
671.199	3160.062
671.327	3084.037
671.455	3089.425
671.583	3060.012
671.712	3215.562
671.840	3072.937
671.968	3012.400
672.096	3018.725
672.224	2954.975
672.352	3159.537
672.480	2981.225
672.608	2915.650
672.737	2906.875
672.865	3110.025
672.993	2900.200
673.121	2856.213
673.249	2856.187
673.377	2821.838
673.505	2812.325
673.633	2804.800
673.762	2763.937
673.890	2760.575
674.018	2954.250
674.146	2742.488
674.274	2741.425
674.402	2891.488
674.530	2706.812
674.658	2714.113
674.787	2652.262
674.915	2631.937
675.043	2688.625
675.171	2661.613
675.299	2621.488
675.427	2635.700
675.555	2573.675
675.683	2576.762
675.812	2581.925
675.940	2579.463
676.068	2587.175
676.196	2530.400
676.324	2525.137
676.452	2513.600
676.580	2496.963
676.708	2516.525
676.837	2536.250
676.965	2460.262
677.093	2466.687
677.221	2433.825
677.349	2444.450
677.477	2447.975
677.605	2403.562
677.733	2431.012
677.862	2384.037
677.990	2371.113
678.118	2367.850
678.246	2352.175
678.374	2327.537
678.502	2323.512
678.630	2298.925
678.758	2285.125
678.887	2283.912
679.015	2283.262
679.143	2257.225
679.271	2243.613
679.399	2242.850
679.527	2220.463
679.655	2198.187
679.783	2211.637
679.912	2182.912
680.040	2190.988
680.168	2177.075
680.296	2144.950
680.424	2138.387
680.552	2126.588
680.680	2129.625
680.808	2102.887
680.937	2101.738
681.065	2095.062
681.193	2066.287
681.321	2080.500
681.449	2076.613
681.577	2053.550
681.705	2020.437
681.833	2018.763
681.962	2004.925
682.090	2015.000
682.218	1993.850
682.346	1991.537
682.474	1985.275
682.602	1991.513
682.730	1960.975
682.858	1933.325
682.987	1943.350
683.115	1935.100
683.243	1899.138
683.371	1907.500
683.499	1886.250
683.627	1916.175
683.755	1871.400
683.883	1872.812
684.012	1862.687
684.140	1844.487
684.268	1840.437
684.396	1835.487
684.524	1836.362
684.652	1836.037
684.780	1823.650
684.908	1792.237
685.037	1794.575
685.165	1798.862
685.293	1794.175
685.421	1784.112
685.549	1746.875
685.677	1774.650
685.805	1737.388
685.933	1754.638
686.062	1710.312
686.190	1729.850
686.318	1719.600
686.446	1706.862
686.574	1689.888
686.702	1706.350
686.830	1687.375
686.958	1672.838
687.087	1690.250
687.215	1658.225
687.343	1640.000
687.471	1646.787
687.599	1617.550
687.727	1634.138
687.855	1628.250
687.983	1618.225
688.112	1617.987
688.240	1590.875
688.368	1597.662
688.496	1591.612
688.624	1570.050
688.752	1569.525
688.880	1563.213
689.008	1543.562
689.137	1555.425
689.265	1531.625
689.393	1521.263
689.521	1536.150
689.649	1524.375
689.777	1512.862
689.905	1506.075
690.033	1502.138
690.162	1487.388
690.290	1474.487
690.418	1479.825
690.546	1483.912
690.674	1473.875
690.802	1467.862
690.930	1449.912
691.058	1430.937
691.187	1425.975
691.315	1428.987
691.443	1418.537
691.571	1420.075
691.699	1390.687
691.827	1400.600
691.955	1393.062
692.083	1382.850
692.212	1373.937
692.340	1359.350
692.468	1360.638
692.596	1344.112
692.724	1351.750
692.852	1338.775
692.980	1339.925
693.108	1325.487
693.237	1316.925
693.365	1315.175
693.493	1299.112
693.621	1281.775
693.749	1284.200
693.877	1271.700
694.005	1263.775
694.133	1266.463
694.262	1274.437
694.390	1260.838
694.518	1232.687
694.646	1242.250
694.774	1237.075
694.902	1208.550
695.030	1235.300
695.158	1205.687
695.287	1210.687
695.415	1205.987
695.543	1194.013
695.671	1195.800
695.799	1171.150
695.927	1171.388
696.055	1167.187
696.183	1179.412
696.312	1164.737
696.440	1139.537
696.568	1151.425
696.696	1134.287
696.824	1123.463
696.952	1130.625
697.080	1127.812
697.208	1127.687
697.337	1104.338
697.465	1097.725
697.593	1092.825
697.721	1092.600
697.849	1084.888
697.977	1081.325
698.105	1083.588
698.233	1077.700
698.362	1059.513
698.490	1062.162
698.618	1062.525
698.746	1038.713
698.874	1054.425
699.002	1047.713
699.130	1040.437
699.258	1046.987
699.387	1015.300
699.515	1019.400
699.643	1030.537
699.771	1014.025
699.899	1007.700
700.027	1008.325
700.155	993.687
700.283	999.250
700.412	987.913
700.540	978.175
700.668	967.212
700.796	970.737
700.924	960.937
701.052	961.575
701.180	951.375
701.308	949.150
701.437	938.712
701.565	941.475
701.693	938.150
701.821	938.725
701.949	936.612
702.077	914.650
702.205	921.125
702.333	913.737
702.462	910.087
702.590	893.987
702.718	901.475
702.846	894.000
702.974	892.962
703.102	885.388
703.230	882.250
703.358	873.388
703.487	871.062
703.615	875.350
703.743	859.025
703.871	862.500
703.999	845.025
704.127	841.112
704.255	839.350
704.383	849.050
704.512	838.025
704.640	829.788
704.768	814.962
704.896	820.950
705.024	811.050
705.152	819.163
705.280	807.175
705.408	795.275
705.537	811.575
705.665	802.175
705.793	795.700
705.921	786.375
706.049	795.750
706.177	779.700
706.305	778.725
706.433	771.225
706.562	770.625
706.690	765.175
706.818	757.100
706.946	763.400
707.074	755.788
707.202	747.212
707.330	750.525
707.458	754.712
707.587	737.837
707.715	740.013
707.843	721.550
707.971	737.325
708.099	730.538
708.227	715.975
708.355	716.575
708.483	709.288
708.612	713.288
708.740	705.337
708.868	704.600
708.996	707.788
709.124	710.100
709.252	694.425
709.380	687.087
709.508	679.350
709.637	680.288
709.765	682.013
709.893	673.888
710.021	669.725
710.149	667.525
710.277	671.425
710.405	667.800
710.533	655.138
710.662	664.100
710.790	665.375
710.918	656.263
711.046	643.862
711.174	650.625
711.302	646.812
711.430	646.800
711.558	643.225
711.687	639.975
711.815	627.500
711.943	632.237
712.071	625.437
712.199	618.712
712.327	618.138
712.455	616.837
712.583	619.975
712.712	627.600
712.840	616.788
712.968	601.687
713.096	607.612
713.224	593.225
713.352	603.388
713.480	591.625
713.608	588.587
713.737	586.375
713.865	586.862
713.993	572.225
714.121	573.675
714.249	582.650
714.377	572.163
714.505	581.312
714.633	567.337
714.762	561.987
714.890	567.763
715.018	574.550
715.146	554.250
715.274	555.562
715.402	555.650
715.530	556.312
715.658	547.962
715.787	554.687
715.915	547.638
716.043	535.850
716.171	549.763
716.299	555.212
716.427	536.125
716.555	538.937
716.683	538.112
716.812	531.675
716.940	533.937
717.068	519.888
717.196	523.663
717.324	520.125
717.452	518.125
717.580	515.900
717.708	515.400
717.837	519.462
717.965	512.900
718.093	507.650
718.221	502.613
718.349	502.225
718.477	501.837
718.605	493.937
718.733	506.450
718.862	495.550
718.990	490.875
719.118	495.038
719.246	490.663
719.374	484.962
719.502	486.363
719.630	489.587
719.758	482.300
719.887	474.750
720.015	477.500
720.143	480.375
720.271	466.675
720.399	478.250
720.527	476.038
720.655	459.600
720.783	461.750
720.912	473.363
721.040	473.937
721.168	452.350
721.296	468.012
721.424	456.288
721.552	451.788
721.680	453.512
721.808	456.450
721.937	449.312
722.065	445.937
722.193	440.750
722.321	446.187
722.449	440.687
722.577	441.562
722.705	431.725
722.833	444.613
722.962	443.125
723.090	426.275
723.218	423.363
723.346	427.062
723.474	427.712
723.602	428.450
723.730	419.837
723.858	427.812
723.987	423.575
724.115	417.538
724.243	417.925
724.371	413.575
724.499	413.113
724.627	411.225
724.755	410.800
724.883	408.637
725.012	408.062
725.140	403.163
725.268	407.712
725.396	399.150
725.524	393.387
725.652	395.475
725.780	396.725
725.908	398.750
726.037	388.450
726.165	385.163
726.293	383.337
726.421	384.663
726.549	386.250
726.677	383.075
726.805	378.288
726.933	381.187
727.062	374.825
727.190	371.762
727.318	370.025
727.446	372.425
727.574	377.387
727.702	373.950
727.830	363.175
727.958	379.875
728.087	362.450
728.215	360.488
728.343	363.087
728.471	368.700
728.599	355.363
728.727	362.988
728.855	364.238
728.983	353.425
729.112	356.175
729.240	358.925
729.368	354.937
729.496	356.637
729.624	351.788
729.752	348.312
729.880	349.663
730.008	349.637
730.137	343.262
730.265	342.775
730.393	339.900
730.521	337.488
730.649	346.462
730.777	342.538
730.905	336.288
731.033	336.775
731.162	335.137
731.290	337.775
731.418	333.538
731.546	353.937
731.674	333.325
731.802	326.175
731.930	328.387
732.058	329.812
732.187	328.325
732.315	319.738
732.443	327.250
732.571	325.050
732.699	322.000
732.827	326.300
732.955	319.450
733.083	314.000
733.212	318.187
733.340	318.212
733.468	315.525
733.596	310.175
733.724	309.587
733.852	311.413
733.980	313.062
734.108	321.225
734.237	311.887
734.365	301.825
734.493	312.687
734.621	304.925
734.749	307.225
734.877	307.075
735.005	299.800
735.133	303.175
735.262	301.800
735.390	301.462
735.518	303.650
735.646	298.988
735.774	291.025
735.902	295.238
736.030	292.100
736.158	300.788
736.287	297.800
736.415	296.812
736.543	290.250
736.671	288.200
736.799	287.488
736.927	302.887
737.055	293.113
737.183	284.637
737.312	286.425
737.440	295.538
737.568	297.837
737.696	286.413
737.824	280.550
737.952	292.113
738.080	285.875
738.208	285.937
738.337	281.087
738.465	286.812
738.593	278.863
738.721	275.550
738.849	278.600
738.977	280.687
739.105	280.625
739.233	274.387
739.362	270.488
739.490	266.825
739.618	271.238
739.746	277.687
739.874	282.488
740.002	272.812
740.130	269.275
740.258	272.512
740.387	268.625
740.515	260.475
740.643	270.788
740.771	269.788
740.899	267.375
741.027	262.700
741.155	265.512
741.283	257.450
741.412	263.075
741.540	258.375
741.668	259.937
741.796	262.913
741.924	264.488
742.052	260.625
742.180	257.337
742.308	255.787
742.437	259.950
742.565	264.062
742.693	258.950
742.821	255.325
742.949	254.100
743.077	256.663
743.205	253.387
743.333	253.713
743.462	260.400
743.590	253.988
743.718	248.338
743.846	248.475
743.974	249.350
744.102	241.738
744.230	245.725
744.358	248.425
744.487	257.187
744.615	246.050
744.743	247.875
744.871	242.550
744.999	254.250
745.127	242.012
745.255	241.287
745.383	237.637
745.512	243.000
745.640	236.937
745.768	238.787
745.896	238.463
746.024	239.000
746.152	233.250
746.280	235.750
746.408	242.250
746.537	235.600
746.665	242.588
746.793	235.750
746.921	233.713
747.049	233.613
747.177	234.363
747.305	226.537
747.433	235.200
747.562	227.338
747.690	223.887
747.818	230.500
747.946	224.437
748.074	241.088
748.202	227.312
748.330	223.088
748.458	230.262
748.587	219.250
748.715	223.512
748.843	225.700
748.971	219.787
749.099	222.025
749.227	225.225
749.355	218.450
749.483	218.450
749.612	216.238
749.740	218.088
749.868	214.425
749.996	218.113
750.124	215.787
750.252	216.100
750.380	214.338
750.508	214.925
750.637	217.863
750.765	216.363
750.893	212.925
751.021	216.875
751.149	209.088
751.277	219.537
751.405	215.200
751.533	216.875
751.662	214.312
751.790	224.800
751.918	224.300
752.046	210.363
752.174	206.312
752.302	218.750
752.430	210.863
752.558	208.975
752.687	206.725
752.815	217.125
752.943	211.325
753.071	203.800
753.199	205.650
753.327	218.000
753.455	202.450
753.583	196.137
753.712	207.988
753.840	199.125
753.968	201.775
754.096	196.312
754.224	199.312
754.352	196.113
754.480	197.312
754.608	198.088
754.737	200.338
754.865	201.725
754.993	197.963
755.121	194.787
755.249	205.775
755.377	195.275
755.505	187.637
755.633	208.037
755.762	190.262
755.890	204.700
756.018	197.338
756.146	191.338
756.274	196.812
756.402	182.463
756.530	190.675
756.658	203.713
756.787	190.012
756.915	182.750
757.043	193.488
757.171	189.100
757.299	185.562
757.427	187.687
757.555	189.137
757.683	191.687
757.812	186.387
757.940	189.675
758.068	181.113
758.196	180.988
758.324	185.075
758.452	182.262
758.580	180.375
758.708	187.562
758.837	182.037
758.965	194.500
759.093	181.750
759.221	179.062
759.349	182.350
759.477	175.925
759.605	177.738
759.733	178.975
759.862	181.637
759.990	178.025
760.118	180.488
760.246	174.137
760.374	180.175
760.502	180.912
760.630	176.750
760.758	176.213
760.887	170.225
761.015	170.387
761.143	175.988
761.271	171.900
761.399	168.700
761.527	170.812
761.655	172.887
761.783	173.600
761.912	167.887
762.040	173.238
762.168	171.975
762.296	173.037
762.424	166.675
762.552	168.037
762.680	174.100
762.808	170.450
762.937	170.550
763.065	167.588
763.193	175.613
763.321	168.575
763.449	164.238
763.577	164.950
763.705	170.512
763.833	187.838
763.962	162.137
764.090	165.762
764.218	169.387
764.346	168.012
764.474	159.787
764.602	165.162
764.730	165.613
764.858	162.075
764.987	168.762
765.115	170.387
765.243	171.488
765.371	158.062
765.499	154.512
765.627	161.350
765.755	164.338
765.883	159.287
766.012	163.437
766.140	155.500
766.268	159.012
766.396	157.863
766.524	153.075
766.652	156.400
766.780	154.187
766.908	164.662
767.037	158.675
767.165	160.100
767.293	163.412
767.421	158.025
767.549	156.713
767.677	157.700
767.805	151.875
767.933	155.213
768.062	153.088
768.190	156.250
768.318	150.300
768.446	166.750
768.574	162.113
768.702	162.238
768.830	156.463
768.958	148.950
769.087	161.075
769.215	154.125
769.343	155.125
769.471	157.725
769.599	161.012
769.727	153.925
769.855	155.437
769.983	149.588
770.112	148.088
770.240	154.050
770.368	150.525
770.496	150.175
770.624	148.137
770.752	156.738
770.880	164.975
771.008	152.012
771.137	154.262
771.265	153.812
771.393	150.475
771.521	150.675
771.649	149.850
771.777	145.200
771.905	151.812
772.033	153.375
772.162	151.287
772.290	152.600
772.418	158.637
772.546	145.437
772.674	146.412
772.802	153.687
772.930	149.225
773.058	146.762
773.187	146.950
773.315	150.137
773.443	151.250
773.571	146.687
773.699	145.162
773.827	140.175
773.955	149.925
774.083	160.900
774.212	146.062
774.340	147.787
774.468	148.863
774.596	147.400
774.724	150.000
774.852	140.687
774.980	149.250
775.108	143.637
775.237	141.075
775.365	142.175
775.493	142.338
775.621	142.988
775.749	143.363
775.877	149.137
776.005	143.275
776.133	144.725
776.262	145.262
776.390	139.213
776.518	151.325
776.646	137.238
776.774	140.525
776.902	141.850
777.030	142.963
777.158	141.912
777.287	140.988
777.415	142.300
777.543	136.463
777.671	140.300
777.799	137.600
777.927	139.787
778.055	142.437
778.183	142.850
778.312	134.812
778.440	137.262
778.568	142.637
778.696	137.537
778.824	141.900
778.952	140.687
779.080	139.575
779.208	143.750
779.337	141.700
779.465	141.463
779.593	138.275
779.721	145.312
779.849	134.975
779.977	137.912
780.105	135.875
780.233	138.725
780.362	146.363
780.490	139.512
780.618	136.300
780.746	139.775
780.874	133.450
781.002	136.925
781.130	139.512
781.258	135.825
781.387	141.375
781.515	135.437
781.643	134.012
781.771	142.037
781.899	138.012
782.027	136.312
782.155	134.175
782.283	131.238
782.412	137.750
782.540	139.687
782.668	138.125
782.796	130.787
782.924	136.437
783.052	131.375
783.180	139.062
783.308	130.025
783.437	133.062
783.565	137.787
783.693	133.525
783.821	136.950
783.949	134.613
784.077	136.363
784.205	135.738
784.333	147.100
784.462	130.062
784.590	134.725
784.718	138.425
784.846	128.113
784.974	133.213
785.102	145.650
785.230	136.363
785.358	144.925
785.487	135.187
785.615	134.825
785.743	131.412
785.871	128.512
785.999	135.137
786.127	127.125
786.255	141.812
786.383	140.488
786.512	133.387
786.640	128.875
786.768	137.300
786.896	130.762
787.024	131.787
787.152	130.812
787.280	130.137
787.408	129.088
787.537	132.787
787.665	132.238
787.793	133.787
787.921	136.400
788.049	128.463
788.177	129.150
788.305	128.912
788.433	132.650
788.562	129.812
788.690	126.588
788.818	130.925
788.946	126.400
789.074	124.475
789.202	131.613
789.330	125.787
789.458	129.025
789.587	129.425
789.715	128.750
789.843	133.037
789.971	124.975
790.099	124.800
790.227	126.838
790.355	126.263
790.483	131.225
790.612	130.562
790.740	128.850
790.868	132.225
790.996	127.000
791.124	126.300
791.252	128.050
791.380	130.000
791.508	123.862
791.637	137.775
791.765	123.638
791.893	121.812
792.021	129.875
792.149	124.000
792.277	126.963
792.405	124.537
792.533	131.588
792.662	123.875
792.790	126.025
792.918	130.425
793.046	121.650
793.174	124.650
793.302	126.325
793.430	129.475
793.558	134.775
793.687	122.300
793.815	128.375
793.943	128.150
794.071	126.612
794.199	124.138
794.327	126.100
794.455	141.463
794.583	138.012
794.712	133.338
794.840	125.200
794.968	122.562
795.096	131.338
795.224	125.500
795.352	121.175
795.480	129.250
795.608	122.050
795.737	127.963
795.865	128.425
795.993	120.562
796.121	121.050
796.249	124.575
796.377	121.925
796.505	128.062
796.633	121.662
796.762	125.088
796.890	128.600
797.018	128.200
797.146	122.675
797.274	119.787
797.402	121.513
797.530	122.475
797.658	121.537
797.787	127.237
797.915	122.800
798.043	124.562
798.171	126.037
798.299	121.138
798.427	118.075
798.555	118.825
798.683	117.400
798.812	122.662
798.940	124.588
799.068	122.250
799.196	127.900
799.324	117.950
799.452	124.750
799.580	117.588
799.708	126.550
799.837	120.713
799.965	119.812
800.093	121.025
800.221	120.175
800.349	121.287
800.477	120.175
800.605	123.487
800.733	126.838
800.862	124.088
800.990	133.850
801.118	123.325
801.246	120.787
801.374	118.912
801.502	124.263
801.630	117.638
801.758	115.325
801.887	121.537
802.015	116.575
802.143	117.500
802.271	119.588
802.399	121.362
802.527	117.575
802.655	115.737
802.783	127.537
802.912	120.537
803.040	119.325
803.168	116.763
803.296	113.275
803.424	114.312
803.552	115.150
803.680	118.362
803.808	118.275
803.937	118.725
804.065	118.362
804.193	116.112
804.321	118.912
804.449	118.300
804.577	116.500
804.705	117.037
804.833	110.088
804.962	113.638
805.090	116.412
805.218	121.187
805.346	116.175
805.474	116.025
805.602	127.675
805.730	118.687
805.858	113.000
805.987	115.187
806.115	121.638
806.243	120.737
806.371	112.912
806.499	117.987
806.627	114.237
806.755	120.838
806.883	114.375
807.012	114.600
807.140	120.075
807.268	114.625
807.396	115.487
807.524	115.050
807.652	116.412
807.780	128.363
807.908	117.662
808.037	123.362
808.165	119.975
808.293	116.500
808.421	123.037
808.549	114.100
808.677	112.662
808.805	125.362
808.933	115.125
809.062	114.450
809.190	134.625
809.318	117.388
809.446	114.450
809.574	113.525
809.702	115.088
809.830	113.312
809.958	120.975
810.087	113.675
810.215	119.437
810.343	128.012
810.471	118.800
810.599	113.013
810.727	113.250
810.855	114.312
810.983	119.537
811.112	116.612
811.240	115.588
811.368	117.312
811.496	125.800
811.624	117.075
811.752	114.325
811.880	111.925
812.008	112.513
812.137	112.825
812.265	113.900
812.393	117.825
812.521	115.550
812.649	116.112
812.777	112.812
812.905	118.725
813.033	111.513
813.162	110.987
813.290	113.287
813.418	114.862
813.546	113.200
813.674	113.550
813.802	115.775
813.930	114.162
814.058	110.050
814.187	111.412
814.315	118.062
814.443	114.787
814.571	111.937
814.699	121.175
814.827	114.125
814.955	111.925
815.083	111.013
815.212	114.775
815.340	114.312
815.468	112.800
815.596	115.937
815.724	108.812
815.852	110.825
815.980	112.888
816.108	111.588
816.237	111.950
816.365	113.300
816.493	115.937
816.621	110.800
816.749	108.737
816.877	113.937
817.005	117.775
817.133	112.162
817.262	109.800
817.390	119.138
817.518	112.425
817.646	115.112
817.774	110.562
817.902	118.200
818.030	109.200
818.158	116.250
818.287	111.775
818.415	110.575
818.543	110.825
818.671	112.812
818.799	113.175
818.927	113.338
819.055	112.062
819.183	110.250
819.312	111.800
819.440	115.275
819.568	111.475
819.696	120.700
819.824	116.575
819.952	113.875
820.080	108.963
820.208	111.250
820.337	111.687
820.465	112.925
820.593	108.800
820.721	110.900
820.849	110.888
820.977	109.812
821.105	111.375
821.233	107.388
821.362	111.850
821.490	108.050
821.618	110.513
821.746	110.037
821.874	112.475
822.002	113.037
822.130	114.675
822.258	108.987
822.387	110.500
822.515	110.225
822.643	108.963
822.771	108.850
822.899	112.612
823.027	108.650
823.155	106.625
823.283	112.325
823.412	114.650
823.540	114.000
823.668	130.838
823.796	110.263
823.924	112.638
824.052	116.862
824.180	111.075
824.308	110.638
824.437	110.125
824.565	110.325
824.693	111.412
824.821	110.950
824.949	112.775
825.077	111.213
825.205	113.463
825.333	112.963
825.462	110.888
825.590	106.600
825.718	112.713
825.846	107.450
825.974	109.338
826.102	112.287
826.230	109.250
826.358	110.562
826.487	107.675
826.615	109.075
826.743	109.850
826.871	112.562
826.999	112.187
827.127	113.600
827.255	107.800
827.383	105.225
827.512	108.437
827.640	113.513
827.768	109.437
827.896	106.000
828.024	108.338
828.152	109.463
828.280	110.362
828.408	111.900
828.537	109.325
828.665	110.675
828.793	109.875
828.921	107.700
829.049	109.300
829.177	108.000
829.305	107.713
829.433	109.162
829.562	109.338
829.690	111.225
829.818	113.588
829.946	108.912
830.074	107.100
830.202	110.412
830.330	112.588
830.458	107.875
830.587	107.713
830.715	108.600
830.843	108.888
830.971	107.588
831.099	112.937
831.227	108.875
831.355	106.362
831.483	107.775
831.612	110.650
831.740	108.513
831.868	118.662
831.996	106.725
832.124	109.100
832.252	107.287
832.380	111.725
832.508	109.350
832.637	110.838
832.765	111.250
832.893	111.700
833.021	112.300
833.149	107.037
833.277	108.325
833.405	105.812
833.533	107.675
833.662	109.650
833.790	110.725
833.918	108.838
834.046	107.950
834.174	112.338
834.302	109.888
834.430	108.525
834.558	109.112
834.687	109.537
834.815	107.475
834.943	108.875
835.071	108.825
835.199	108.425
835.327	108.062
835.455	106.225
835.583	108.513
835.712	107.687
835.840	108.862
835.968	107.775
836.096	109.975
836.224	115.975
836.352	111.975
836.480	112.513
836.608	114.713
836.737	107.150
836.865	106.763
836.993	107.412
837.121	105.875
837.249	107.750
837.377	111.275
837.505	108.950
837.633	106.437
837.762	102.975
837.890	108.338
838.018	114.112
838.146	106.075
838.274	111.425
838.402	113.612
838.530	105.713
838.658	104.450
838.787	106.713
838.915	112.325
839.043	109.437
839.171	115.138
839.299	110.213
839.427	108.838
839.555	117.400
839.683	108.037
839.812	105.950
839.940	103.213
840.068	107.487
840.196	107.800
840.324	112.550
840.452	110.312
840.580	110.638
840.708	108.088
840.837	109.000
840.965	112.412
841.093	112.187
841.221	109.250
841.349	109.675
841.477	110.237
841.605	106.375
841.733	105.775
841.862	108.537
841.990	110.737
842.118	107.062
842.246	106.562
842.374	105.987
842.502	106.975
842.630	105.588
842.758	108.600
842.887	110.338
843.015	109.963
843.143	110.963
843.271	111.088
843.399	109.875
843.527	106.812
843.655	104.763
843.783	104.937
843.912	109.187
844.040	110.700
844.168	115.138
844.296	109.338
844.424	110.037
844.552	111.662
844.680	110.888
844.808	112.000
844.937	106.888
845.065	107.638
845.193	109.200
845.321	110.550
845.449	109.412
845.577	107.138
845.705	107.850
845.833	109.737
845.962	106.825
846.090	106.475
846.218	104.975
846.346	108.350
846.474	106.737
846.602	105.875
846.730	106.425
846.858	105.912
846.987	108.100
847.115	110.463
847.243	112.037
847.371	112.500
847.499	108.525
847.627	106.825
847.755	106.562
847.883	108.862
848.012	109.175
848.140	106.638
848.268	106.475
848.396	108.150
848.524	107.662
848.652	106.850
848.780	105.812
848.908	108.325
849.037	108.588
849.165	106.737
849.293	108.325
849.421	109.138
849.549	105.312
849.677	108.162
849.805	112.175
849.933	109.225
850.062	107.037
850.190	106.750
850.318	107.950
850.446	105.375
850.574	105.000
850.702	108.825
850.830	108.725
850.958	107.787
851.087	108.725
851.215	116.450
851.343	110.625
851.471	106.500
851.599	111.075
851.727	109.463
851.855	106.425
851.983	106.612
852.112	107.112
852.240	106.050
852.368	108.013
852.496	105.662
852.624	106.750
852.752	105.875
852.880	104.987
853.008	111.700
853.137	111.400
853.265	107.737
853.393	109.987
853.521	110.250
853.649	110.300
853.777	108.013
853.905	107.075
854.033	107.800
854.162	107.487
854.290	106.900
854.418	103.425
854.546	105.687
854.674	107.888
854.802	104.675
854.930	106.300
855.058	106.025
855.187	103.412
855.315	102.825
855.443	103.562
855.571	105.062
855.699	105.588
855.827	107.362
855.955	107.925
856.083	106.300
856.212	104.787
856.340	104.050
856.468	106.050
856.596	110.463
856.724	109.475
856.852	106.763
856.980	107.187
857.108	108.187
857.237	110.263
857.365	108.162
857.493	106.850
857.621	105.812
857.749	107.375
857.877	108.463
858.005	109.250
858.133	106.463
858.262	104.187
858.390	105.000
858.518	103.638
858.646	107.812
858.774	106.013
858.902	106.112
859.030	106.675
859.158	106.463
859.287	108.737
859.415	107.450
859.543	104.400
859.671	108.263
859.799	110.200
859.927	108.200
860.055	107.925
860.183	105.912
860.312	107.200
860.440	108.350
860.568	110.713
860.696	107.600
860.824	120.325
860.952	105.537
861.080	105.812
861.208	106.025
861.337	108.187
861.465	106.713
861.593	111.487
861.721	104.975
861.849	107.213
861.977	108.625
862.105	108.175
862.233	106.162
862.362	108.675
862.490	107.812
862.618	107.525
862.746	106.562
862.874	106.062
863.002	105.850
863.130	109.612
863.258	109.125
863.387	109.400
863.515	110.912
863.643	107.013
863.771	109.950
863.899	109.287
864.027	105.200
864.155	105.037
864.283	104.187
864.412	107.875
864.540	108.150
864.668	105.237
864.796	105.963
864.924	105.737
865.052	105.562
865.180	105.775
865.308	103.888
865.437	104.325
865.565	105.812
865.693	105.850
865.821	106.362
865.949	104.662
866.077	105.912
866.205	106.013
866.333	104.600
866.462	105.638
866.590	107.025
866.718	107.213
866.846	107.062
866.974	107.287
867.102	109.362
867.230	107.450
867.358	107.225
867.487	107.263
867.615	108.525
867.743	108.412
867.871	107.912
867.999	105.450
868.127	104.300
868.255	115.725
868.383	108.763
868.512	106.250
868.640	106.612
868.768	106.687
868.896	106.125
869.024	106.763
869.152	113.987
869.280	109.600
869.408	106.487
869.537	108.075
869.665	109.550
869.793	106.588
869.921	111.925
870.049	111.225
870.177	109.537
870.305	118.987
870.433	108.600
870.562	107.300
870.690	104.925
870.818	105.162
870.946	106.362
871.074	106.912
871.202	105.375
871.330	106.250
871.458	106.150
871.587	107.550
871.715	105.875
871.843	106.787
871.971	107.162
872.099	106.975
872.227	107.638
872.355	106.763
872.483	105.338
872.612	110.200
872.740	108.412
872.868	106.700
872.996	107.287
873.124	107.525
873.252	110.800
873.380	109.912
873.508	107.075
873.637	105.475
873.765	109.513
873.893	108.463
874.021	108.400
874.149	106.900
874.277	106.600
874.405	112.888
874.533	108.013
874.662	329.825
874.790	115.600
874.918	113.275
875.046	108.638
875.174	109.463
875.302	106.800
875.430	107.963
875.558	108.287
875.687	107.287
875.815	109.638
875.943	108.537
876.071	109.213
876.199	108.562
876.327	113.825
876.455	109.412
876.583	106.450
876.712	107.937
876.840	107.662
876.968	106.487
877.096	106.275
877.224	105.375
877.352	103.888
877.480	104.412
877.608	105.187
877.737	106.500
877.865	106.575
877.993	108.612
878.121	106.975
878.249	110.487
878.377	107.037
878.505	107.825
878.633	104.838
878.762	106.650
878.890	106.263
879.018	113.125
879.146	109.525
879.274	106.525
879.402	106.713
879.530	108.200
879.658	109.437
879.787	111.937
879.915	111.150
880.043	107.025
880.171	107.562
880.299	105.088
880.427	108.700
880.555	111.713
880.683	107.825
880.812	107.463
880.940	110.725
881.068	107.425
881.196	106.912
881.324	109.638
881.452	107.187
881.580	107.513
881.708	109.850
881.837	108.737
881.965	107.162
882.093	105.312
882.221	104.312
882.349	109.687
882.477	107.612
882.605	114.287
882.733	108.312
882.862	104.250
882.990	106.750
883.118	109.850
883.246	115.575
883.374	110.037
883.502	105.900
883.630	104.475
883.758	105.400
883.887	105.500
884.015	106.000
884.143	106.125
884.271	107.575
884.399	104.250
884.527	107.825
884.655	105.662
884.783	106.662
884.912	106.575
885.040	106.625
885.168	104.050
885.296	106.225
885.424	107.950
885.552	110.800
885.680	105.687
885.808	108.725
885.937	110.850
886.065	107.175
886.193	105.213
886.321	106.362
886.449	109.187
886.577	109.112
886.705	109.225
886.833	106.937
886.962	106.300
887.090	108.750
887.218	109.175
887.346	108.987
887.474	114.687
887.602	112.700
887.730	106.963
887.858	109.662
887.987	109.175
888.115	113.550
888.243	109.500
888.371	108.187
888.499	108.312
888.627	105.100
888.755	107.612
888.883	108.150
889.012	104.500
889.140	107.250
889.268	116.013
889.396	111.200
889.524	105.900
889.652	104.362
889.780	105.287
889.908	108.338
890.037	106.112
890.165	107.338
890.293	107.550
890.421	104.487
890.549	108.912
890.677	110.237
890.805	106.200
890.933	107.925
891.062	107.338
891.190	110.888
891.318	109.375
891.446	108.075
891.574	106.037
891.702	106.800
891.830	105.388
891.958	108.338
892.087	108.312
892.215	109.237
892.343	112.300
892.471	109.987
892.599	107.537
892.727	111.375
892.855	109.000
892.983	108.763
893.112	108.800
893.240	108.450
893.368	108.500
893.496	108.662
893.624	110.925
893.752	121.937
893.880	105.800
894.008	105.150
894.137	112.562
894.265	111.050
894.393	110.687
894.521	110.888
894.649	109.213
894.777	104.312
894.905	106.125
895.033	113.162
895.162	113.200
895.290	114.638
895.418	109.638
895.546	112.500
895.674	119.925
895.802	107.537
895.930	110.937
896.058	107.575
896.187	106.912
896.315	108.687
896.443	109.700
896.571	108.088
896.699	108.375
896.827	110.737
896.955	110.463
897.083	109.200
897.212	105.975
897.340	104.312
897.468	108.737
897.596	107.437
897.724	106.900
897.852	115.175
897.980	108.875
898.108	107.237
898.237	105.375
898.365	107.175
898.493	108.475
898.621	107.250
898.749	107.150
898.877	109.687
899.005	106.500
899.133	106.125
899.262	107.687
899.390	107.750
899.518	108.888
899.646	110.088
899.774	114.575
899.902	115.237
900.030	107.937
900.158	109.362
900.287	108.450
900.415	106.225
900.543	107.562
900.671	115.213
900.799	112.237
900.927	109.875
901.055	105.937
901.183	107.362
901.312	107.550
901.440	110.975
901.568	111.013
901.696	110.175
901.824	110.963
901.952	113.225
902.080	106.750
902.208	110.475
902.337	109.550
902.465	106.463
902.593	110.612
902.721	111.700
902.849	109.937
902.977	108.475
903.105	113.025
903.233	114.800
903.362	110.200
903.490	109.200
903.618	106.287
903.746	109.325
903.874	106.925
904.002	108.062
904.130	110.375
904.258	108.662
904.387	107.050
904.515	106.963
904.643	109.062
904.771	108.263
904.899	110.375
905.027	107.900
905.155	106.325
905.283	108.700
905.412	114.362
905.540	112.362
905.668	108.437
905.796	106.175
905.924	107.662
906.052	108.487
906.180	110.862
906.308	116.400
906.437	112.000
906.565	112.325
906.693	109.037
906.821	107.075
906.949	107.900
907.077	109.737
907.205	109.775
907.333	112.675
907.462	111.275
907.590	112.575
907.718	111.800
907.846	109.025
907.974	109.400
908.102	108.350
908.230	110.700
908.358	109.338
908.487	112.250
908.615	112.450
908.743	112.437
908.871	110.812
908.999	110.725
909.127	108.338
909.255	106.412
909.383	111.088
909.512	113.638
909.640	111.025
909.768	113.425
909.896	122.225
910.024	113.838
910.152	115.325
910.280	120.950
910.408	110.550
910.537	111.075
910.665	116.187
910.793	114.325
910.921	118.050
911.049	114.287
911.177	112.638
911.305	119.187
911.433	114.175
911.562	110.963
911.690	112.737
911.818	124.525
911.946	121.550
912.074	115.625
912.202	112.900
912.330	111.463
912.458	113.625
912.587	116.650
912.715	114.100
912.843	115.900
912.971	115.437
913.099	118.750
913.227	116.275
913.355	118.062
913.483	115.725
913.612	114.650
913.740	127.775
913.868	112.500
