sample4h_at_750.00nm_cut_at_1200.50Y_01.dat
19.06.2023
10:53:53
cut middle at Y: 1200.50
top cursor: 1249 down cursor: 1152 mean of: 97 lines , 2560 datapoints
wavelength(nm)	intensity[arb. units]
585.996	1182.206
586.124	1157.134
586.252	1154.670
586.380	1154.103
586.508	1145.866
586.637	1158.619
586.765	1158.103
586.893	1161.536
587.021	1170.701
587.149	1164.722
587.277	1164.361
587.405	1172.062
587.533	1150.361
587.662	1157.784
587.790	1159.412
587.918	1161.938
588.046	1167.887
588.174	1168.443
588.302	1175.278
588.430	1177.144
588.558	1174.536
588.687	1175.835
588.815	1180.247
588.943	1184.649
589.071	1187.680
589.199	1170.474
589.327	1181.155
589.455	1178.495
589.583	1195.392
589.712	1173.701
589.840	1187.113
589.968	1187.186
590.096	1185.103
590.224	1185.186
590.352	1199.464
590.480	1195.402
590.608	1196.361
590.737	1195.835
590.865	1192.670
590.993	1198.412
591.121	1206.093
591.249	1197.784
591.377	1207.918
591.505	1210.309
591.633	1203.361
591.762	1210.052
591.890	1200.856
592.018	1199.351
592.146	1207.598
592.274	1210.320
592.402	1198.887
592.530	1205.515
592.658	1208.938
592.787	1213.072
592.915	1210.588
593.043	1206.144
593.171	1208.526
593.299	1218.186
593.427	1224.969
593.555	1217.144
593.683	1215.649
593.812	1225.392
593.940	1237.608
594.068	1222.918
594.196	1213.021
594.324	1235.206
594.452	1224.577
594.580	1224.464
594.708	1229.608
594.837	1228.124
594.965	1240.557
595.093	1232.773
595.221	1234.856
595.349	1237.794
595.477	1250.825
595.605	1248.619
595.733	1256.474
595.862	1247.649
595.990	1247.247
596.118	1245.258
596.246	1257.515
596.374	1260.794
596.502	1258.753
596.630	1270.464
596.758	1264.299
596.887	1261.072
597.015	1268.247
597.143	1263.567
597.271	1264.134
597.399	1250.052
597.527	1255.629
597.655	1254.588
597.783	1251.969
597.912	1260.794
598.040	1251.660
598.168	1256.392
598.296	1254.227
598.424	1254.124
598.552	1258.330
598.680	1252.381
598.808	1254.052
598.937	1254.639
599.065	1245.082
599.193	1238.247
599.321	1251.433
599.449	1255.495
599.577	1255.742
599.705	1248.907
599.833	1260.062
599.962	1251.660
600.090	1244.928
600.218	1253.093
600.346	1253.495
600.474	1252.608
600.602	1252.608
600.730	1261.031
600.858	1259.639
600.987	1260.330
601.115	1253.227
601.243	1256.784
601.371	1262.990
601.499	1258.144
601.627	1272.082
601.755	1266.474
601.883	1280.103
602.012	1270.825
602.140	1273.515
602.268	1286.309
602.396	1275.773
602.524	1281.165
602.652	1285.062
602.780	1310.464
602.908	1287.732
603.037	1303.505
603.165	1294.052
603.293	1293.454
603.421	1299.227
603.549	1306.227
603.677	1312.124
603.805	1307.072
603.933	1315.093
604.062	1307.887
604.190	1325.124
604.318	1330.546
604.446	1325.722
604.574	1326.320
604.702	1327.423
604.830	1334.856
604.958	1336.402
605.087	1341.093
605.215	1345.515
605.343	1349.732
605.471	1336.742
605.599	1341.485
605.727	1353.021
605.855	1348.505
605.983	1341.588
606.112	1363.825
606.240	1353.041
606.368	1348.412
606.496	1348.454
606.624	1367.175
606.752	1355.691
606.880	1345.536
607.008	1360.155
607.137	1364.701
607.265	1359.557
607.393	1354.835
607.521	1347.526
607.649	1374.196
607.777	1346.041
607.905	1365.856
608.033	1351.082
608.162	1348.320
608.290	1356.320
608.418	1355.299
608.546	1345.093
608.674	1358.711
608.802	1372.856
608.930	1359.515
609.058	1345.464
609.187	1349.186
609.315	1336.876
609.443	1349.845
609.571	1360.320
609.699	1346.093
609.827	1356.557
609.955	1361.701
610.083	1339.928
610.212	1354.196
610.340	1345.711
610.468	1367.443
610.596	1357.526
610.724	1332.371
610.852	1353.907
610.980	1348.938
611.108	1354.979
611.237	1364.887
611.365	1341.959
611.493	1340.990
611.621	1328.031
611.749	1349.340
611.877	1358.052
612.005	1357.577
612.133	1346.680
612.262	1360.938
612.390	1353.392
612.518	1348.227
612.646	1348.093
612.774	1356.474
612.902	1353.124
613.030	1367.144
613.158	1371.340
613.287	1376.918
613.415	1366.165
613.543	1364.732
613.671	1368.670
613.799	1372.691
613.927	1373.979
614.055	1380.010
614.183	1370.526
614.312	1367.299
614.440	1374.093
614.568	1374.247
614.696	1395.371
614.824	1382.144
614.952	1385.289
615.080	1379.784
615.208	1381.526
615.337	1397.660
615.465	1377.258
615.593	1382.196
615.721	1384.701
615.849	1372.526
615.977	1391.289
616.105	1385.515
616.233	1399.526
616.362	1398.113
616.490	1394.062
616.618	1405.082
616.746	1404.433
616.874	1392.691
617.002	1403.021
617.130	1396.598
617.258	1390.701
617.387	1380.680
617.515	1404.814
617.643	1397.608
617.771	1397.619
617.899	1411.948
618.027	1390.763
618.155	1398.216
618.283	1388.381
618.412	1395.082
618.540	1406.763
618.668	1405.186
618.796	1395.093
618.924	1392.959
619.052	1403.753
619.180	1402.361
619.308	1410.619
619.437	1421.495
619.565	1402.144
619.693	1404.299
619.821	1406.588
619.949	1416.639
620.077	1400.546
620.205	1406.206
620.333	1404.227
620.462	1406.979
620.590	1409.113
620.718	1427.072
620.846	1399.340
620.974	1398.402
621.102	1408.763
621.230	1416.433
621.358	1395.454
621.487	1410.247
621.615	1409.948
621.743	1410.124
621.871	1410.320
621.999	1402.722
622.127	1397.732
622.255	1403.093
622.383	1403.814
622.512	1398.825
622.640	1405.072
622.768	1416.567
622.896	1393.608
623.024	1403.505
623.152	1393.062
623.280	1411.196
623.408	1401.175
623.537	1403.031
623.665	1404.536
623.793	1393.753
623.921	1400.979
624.049	1407.619
624.177	1399.464
624.305	1401.340
624.433	1396.433
624.562	1393.361
624.690	1398.990
624.818	1394.237
624.946	1404.196
625.074	1386.845
625.202	1393.144
625.330	1399.320
625.458	1412.021
625.587	1392.206
625.715	1402.753
625.843	1401.423
625.971	1391.680
626.099	1392.021
626.227	1394.495
626.355	1393.278
626.483	1394.485
626.612	1392.082
626.740	1393.670
626.868	1395.031
626.996	1386.041
627.124	1372.763
627.252	1399.794
627.380	1394.103
627.508	1387.196
627.637	1383.691
627.765	1381.557
627.893	1408.206
628.021	1398.072
628.149	1400.691
628.277	1399.320
628.405	1412.103
628.533	1383.113
628.662	1394.216
628.790	1394.588
628.918	1390.031
629.046	1385.876
629.174	1389.299
629.302	1405.299
629.430	1389.598
629.558	1393.794
629.687	1401.557
629.815	1398.897
629.943	1407.216
630.071	1406.907
630.199	1400.412
630.327	1402.938
630.455	1397.443
630.583	1401.732
630.712	1414.010
630.840	1403.629
630.968	1403.660
631.096	1411.412
631.224	1416.258
631.352	1398.268
631.480	1406.505
631.608	1401.268
631.737	1402.990
631.865	1404.979
631.993	1406.134
632.121	1411.196
632.249	1408.216
632.377	1412.660
632.505	1415.866
632.633	1406.392
632.762	1417.660
632.890	1409.619
633.018	1409.845
633.146	1400.794
633.274	1417.299
633.402	1399.278
633.530	1409.072
633.658	1419.216
633.787	1411.361
633.915	1413.629
634.043	1395.423
634.171	1404.907
634.299	1401.443
634.427	1401.464
634.555	1412.567
634.683	1407.753
634.812	1408.928
634.940	1403.959
635.068	1393.134
635.196	1398.072
635.324	1404.701
635.452	1386.082
635.580	1400.381
635.708	1387.691
635.837	1394.392
635.965	1379.423
636.093	1374.237
636.221	1373.619
636.349	1386.546
636.477	1372.660
636.605	1368.866
636.733	1363.454
636.862	1375.206
636.990	1367.557
637.118	1378.866
637.246	1363.577
637.374	1369.402
637.502	1364.649
637.630	1353.804
637.758	1349.361
637.887	1358.113
638.015	1355.412
638.143	1363.361
638.271	1345.866
638.399	1351.371
638.527	1353.103
638.655	1362.124
638.783	1345.072
638.912	1360.000
639.040	1352.361
639.168	1339.722
639.296	1342.124
639.424	1338.794
639.552	1333.062
639.680	1342.454
639.808	1343.979
639.937	1329.680
640.065	1338.526
640.193	1337.155
640.321	1336.691
640.449	1334.577
640.577	1336.340
640.705	1337.299
640.833	1332.670
640.962	1328.021
641.090	1330.186
641.218	1329.990
641.346	1318.526
641.474	1321.928
641.602	1325.330
641.730	1328.113
641.858	1321.381
641.987	1336.371
642.115	1327.979
642.243	1330.412
642.371	1346.289
642.499	1325.979
642.627	1337.928
642.755	1322.351
642.883	1321.990
643.012	1323.701
643.140	1340.021
643.268	1329.722
643.396	1329.010
643.524	1322.907
643.652	1322.711
643.780	1313.959
643.908	1314.825
644.037	1324.629
644.165	1319.629
644.293	1326.010
644.421	1319.753
644.549	1324.670
644.677	1329.959
644.805	1325.969
644.933	1310.948
645.062	1319.062
645.190	1318.268
645.318	1312.134
645.446	1317.371
645.574	1324.371
645.702	1308.392
645.830	1325.557
645.958	1326.660
646.087	1313.052
646.215	1326.041
646.343	1304.175
646.471	1318.474
646.599	1297.268
646.727	1297.753
646.855	1301.392
646.983	1306.423
647.112	1300.175
647.240	1303.361
647.368	1304.866
647.496	1282.588
647.624	1287.381
647.752	1290.371
647.880	1292.206
648.008	1294.392
648.137	1297.619
648.265	1279.423
648.393	1298.598
648.521	1277.567
648.649	1289.371
648.777	1276.000
648.905	1270.082
649.033	1287.124
649.162	1271.577
649.290	1263.103
649.418	1265.485
649.546	1277.577
649.674	1265.876
649.802	1274.814
649.930	1262.691
650.058	1258.485
650.187	1257.443
650.315	1265.505
650.443	1258.629
650.571	1252.433
650.699	1241.299
650.827	1254.588
650.955	1252.876
651.083	1250.041
651.212	1253.093
651.340	1249.763
651.468	1239.608
651.596	1243.948
651.724	1243.299
651.852	1235.670
651.980	1238.598
652.108	1242.608
652.237	1236.680
652.365	1215.557
652.493	1217.155
652.621	1216.330
652.749	1216.485
652.877	1222.443
653.005	1226.371
653.133	1214.567
653.262	1211.412
653.390	1208.474
653.518	1208.711
653.646	1206.732
653.774	1213.969
653.902	1210.938
654.030	1209.990
654.158	1194.660
654.287	1203.289
654.415	1188.433
654.543	1204.082
654.671	1193.175
654.799	1189.588
654.927	1183.412
655.055	1186.474
655.183	1184.711
655.312	1185.227
655.440	1180.969
655.568	1175.608
655.696	1188.330
655.824	1190.351
655.952	1174.856
656.080	1169.567
656.208	1173.247
656.337	1170.041
656.465	1167.144
656.593	1167.742
656.721	1164.216
656.849	1152.155
656.977	1164.216
657.105	1163.804
657.233	1154.320
657.362	1152.680
657.490	1152.887
657.618	1157.598
657.746	1159.258
657.874	1151.299
658.002	1148.722
658.130	1158.320
658.258	1138.588
658.387	1137.206
658.515	1140.598
658.643	1129.990
658.771	1162.907
658.899	1142.443
659.027	1135.402
659.155	1132.268
659.283	1126.567
659.412	1128.670
659.540	1135.351
659.668	1136.258
659.796	1133.577
659.924	1144.227
660.052	1138.309
660.180	1124.021
660.308	1121.124
660.437	1124.711
660.565	1118.711
660.693	1122.835
660.821	1120.021
660.949	1129.289
661.077	1113.536
661.205	1110.753
661.333	1108.959
661.462	1110.804
661.590	1100.175
661.718	1113.124
661.846	1117.536
661.974	1110.557
662.102	1101.711
662.230	1103.227
662.358	1105.134
662.487	1104.990
662.615	1096.093
662.743	1102.237
662.871	1091.691
662.999	1099.485
663.127	1107.804
663.255	1096.907
663.383	1098.165
663.512	1103.320
663.640	1094.598
663.768	1094.887
663.896	1101.742
664.024	1087.454
664.152	1092.227
664.280	1090.649
664.408	1076.742
664.537	1079.515
664.665	1096.062
664.793	1077.773
664.921	1085.753
665.049	1084.928
665.177	1078.835
665.305	1078.577
665.433	1081.670
665.562	1086.649
665.690	1079.103
665.818	1072.412
665.946	1083.134
666.074	1083.031
666.202	1082.742
666.330	1070.134
666.458	1097.454
666.587	1077.010
666.715	1067.711
666.843	1066.567
666.971	1072.680
667.099	1062.876
667.227	1066.629
667.355	1071.144
667.483	1073.938
667.612	1066.907
667.740	1062.546
667.868	1063.000
667.996	1059.660
668.124	1066.753
668.252	1054.701
668.380	1055.124
668.508	1062.155
668.637	1046.381
668.765	1053.392
668.893	1047.649
669.021	1046.814
669.149	1044.588
669.277	1047.330
669.405	1042.639
669.533	1045.979
669.662	1042.082
669.790	1043.794
669.918	1039.546
670.046	1033.856
670.174	1031.515
670.302	1028.722
670.430	1036.454
670.558	1027.474
670.687	1027.155
670.815	1020.845
670.943	1031.670
671.071	1015.175
671.199	1017.825
671.327	1018.835
671.455	1011.948
671.583	1013.515
671.712	1009.485
671.840	1012.691
671.968	1001.608
672.096	993.474
672.224	998.196
672.352	995.918
672.480	990.278
672.608	996.680
672.737	995.289
672.865	1003.186
672.993	990.856
673.121	984.082
673.249	984.742
673.377	987.464
673.505	977.258
673.633	981.340
673.762	965.392
673.890	976.000
674.018	973.928
674.146	966.392
674.274	967.361
674.402	960.309
674.530	964.175
674.658	967.124
674.787	967.155
674.915	963.247
675.043	964.773
675.171	955.082
675.299	946.536
675.427	952.320
675.555	952.969
675.683	939.103
675.812	934.866
675.940	947.536
676.068	936.804
676.196	940.124
676.324	938.093
676.452	940.619
676.580	929.742
676.708	928.959
676.837	929.608
676.965	932.402
677.093	929.969
677.221	919.722
677.349	917.041
677.477	922.711
677.605	923.887
677.733	907.887
677.862	914.021
677.990	910.845
678.118	911.784
678.246	903.794
678.374	907.773
678.502	903.732
678.630	900.546
678.758	902.742
678.887	897.969
679.015	903.052
679.143	896.804
679.271	900.804
679.399	895.515
679.527	888.856
679.655	888.175
679.783	885.237
679.912	878.031
680.040	883.175
680.168	881.010
680.296	879.268
680.424	889.639
680.552	871.536
680.680	881.268
680.808	876.010
680.937	873.144
681.065	873.732
681.193	862.082
681.321	870.536
681.449	863.959
681.577	870.392
681.705	858.763
681.833	862.660
681.962	856.948
682.090	867.103
682.218	863.278
682.346	856.887
682.474	851.093
682.602	849.175
682.730	845.113
682.858	844.845
682.987	848.485
683.115	849.464
683.243	852.010
683.371	842.536
683.499	841.588
683.627	844.969
683.755	839.866
683.883	838.144
684.012	835.722
684.140	838.804
684.268	825.835
684.396	833.402
684.524	827.268
684.652	830.392
684.780	834.402
684.908	840.093
685.037	823.536
685.165	829.423
685.293	831.918
685.421	827.567
685.549	824.175
685.677	829.835
685.805	821.155
685.933	825.227
686.062	825.381
686.190	819.773
686.318	821.134
686.446	810.619
686.574	824.041
686.702	811.021
686.830	820.041
686.958	817.990
687.087	823.433
687.215	812.990
687.343	805.361
687.471	808.454
687.599	808.206
687.727	813.124
687.855	796.268
687.983	794.186
688.112	798.041
688.240	798.835
688.368	803.072
688.496	805.948
688.624	799.196
688.752	803.361
688.880	792.392
689.008	788.660
689.137	791.876
689.265	785.979
689.393	791.680
689.521	783.515
689.649	797.474
689.777	780.691
689.905	785.227
690.033	777.732
690.162	778.258
690.290	772.000
690.418	781.598
690.546	780.845
690.674	778.299
690.802	762.938
690.930	762.938
691.058	764.289
691.187	763.948
691.315	765.979
691.443	770.021
691.571	769.948
691.699	759.845
691.827	769.990
691.955	756.876
692.083	756.691
692.212	750.041
692.340	755.485
692.468	752.237
692.596	749.918
692.724	747.577
692.852	737.938
692.980	745.340
693.108	745.206
693.237	742.361
693.365	731.876
693.493	738.814
693.621	725.711
693.749	727.443
693.877	737.474
694.005	725.165
694.133	728.144
694.262	723.856
694.390	715.175
694.518	715.856
694.646	706.948
694.774	712.093
694.902	709.124
695.030	703.979
695.158	713.639
695.287	702.979
695.415	710.711
695.543	692.825
695.671	688.732
695.799	695.588
695.927	692.928
696.055	693.206
696.183	687.722
696.312	694.320
696.440	689.680
696.568	681.959
696.696	683.753
696.824	685.268
696.952	675.186
697.080	686.722
697.208	675.041
697.337	676.794
697.465	671.835
697.593	673.021
697.721	670.546
697.849	672.227
697.977	664.392
698.105	667.278
698.233	668.052
698.362	656.443
698.490	671.907
698.618	661.814
698.746	653.536
698.874	655.320
699.002	647.041
699.130	651.464
699.258	653.041
699.387	647.845
699.515	640.691
699.643	643.691
699.771	643.928
699.899	640.093
700.027	641.227
700.155	641.856
700.283	635.969
700.412	628.227
700.540	630.258
700.668	636.309
700.796	630.021
700.924	630.670
701.052	619.010
701.180	626.784
701.308	612.887
701.437	615.990
701.565	616.722
701.693	606.897
701.821	614.227
701.949	613.278
702.077	607.093
702.205	607.897
702.333	609.897
702.462	595.041
702.590	594.062
702.718	595.928
702.846	595.959
702.974	593.340
703.102	596.990
703.230	587.000
703.358	585.670
703.487	589.918
703.615	586.144
703.743	582.619
703.871	578.474
703.999	579.557
704.127	571.845
704.255	574.052
704.383	568.351
704.512	572.670
704.640	563.505
704.768	558.237
704.896	561.990
705.024	558.948
705.152	556.258
705.280	562.948
705.408	555.588
705.537	553.918
705.665	550.196
705.793	553.237
705.921	547.866
706.049	540.412
706.177	534.186
706.305	543.598
706.433	547.485
706.562	537.309
706.690	538.423
706.818	538.289
706.946	532.753
707.074	529.330
707.202	528.289
707.330	523.103
707.458	529.588
707.587	528.165
707.715	524.742
707.843	525.753
707.971	517.423
708.099	515.639
708.227	517.814
708.355	514.825
708.483	516.753
708.612	516.381
708.740	510.887
708.868	512.526
708.996	512.052
709.124	512.918
709.252	511.577
709.380	511.402
709.508	500.165
709.637	504.990
709.765	496.794
709.893	501.330
710.021	501.000
710.149	498.722
710.277	492.371
710.405	493.361
710.533	490.629
710.662	489.732
710.790	488.691
710.918	485.216
711.046	491.093
711.174	481.763
711.302	491.753
711.430	482.464
711.558	488.639
711.687	477.649
711.815	476.649
711.943	485.392
712.071	486.773
712.199	482.052
712.327	474.495
712.455	472.351
712.583	472.124
712.712	476.876
712.840	471.237
712.968	466.835
713.096	472.381
713.224	466.454
713.352	467.247
713.480	469.526
713.608	469.691
713.737	467.814
713.865	463.062
713.993	468.062
714.121	462.897
714.249	467.134
714.377	462.278
714.505	451.557
714.633	458.000
714.762	458.629
714.890	458.010
715.018	456.258
715.146	451.959
715.274	453.093
715.402	445.505
715.530	448.144
715.658	445.536
715.787	443.959
715.915	440.948
716.043	438.660
716.171	446.124
716.299	442.103
716.427	436.536
716.555	439.887
716.683	441.670
716.812	441.227
716.940	437.186
717.068	436.196
717.196	434.990
717.324	439.134
717.452	433.072
717.580	435.155
717.708	427.825
717.837	427.804
717.965	429.670
718.093	429.412
718.221	423.814
718.349	433.103
718.477	424.227
718.605	425.320
718.733	421.959
718.862	418.845
718.990	417.268
719.118	422.969
719.246	412.124
719.374	416.598
719.502	417.134
719.630	415.505
719.758	409.186
719.887	408.959
720.015	407.526
720.143	406.773
720.271	405.825
720.399	404.464
720.527	400.536
720.655	393.670
720.783	392.577
720.912	394.443
721.040	395.887
721.168	399.330
721.296	390.206
721.424	391.381
721.552	390.845
721.680	388.227
721.808	391.351
721.937	386.907
722.065	383.454
722.193	384.773
722.321	386.227
722.449	384.124
722.577	386.000
722.705	375.619
722.833	379.856
722.962	381.186
723.090	377.247
723.218	376.433
723.346	368.330
723.474	376.526
723.602	366.103
723.730	368.928
723.858	371.474
723.987	370.165
724.115	368.649
724.243	369.876
724.371	363.361
724.499	368.526
724.627	362.103
724.755	363.938
724.883	360.474
725.012	362.082
725.140	362.165
725.268	357.144
725.396	351.103
725.524	355.412
725.652	354.577
725.780	350.814
725.908	348.381
726.037	350.186
726.165	349.577
726.293	349.216
726.421	347.835
726.549	344.918
726.677	348.155
726.805	341.258
726.933	343.804
727.062	343.557
727.190	340.959
727.318	338.897
727.446	338.165
727.574	335.072
727.702	334.784
727.830	340.680
727.958	336.227
728.087	339.072
728.215	332.959
728.343	329.402
728.471	331.670
728.599	332.948
728.727	326.979
728.855	330.340
728.983	323.412
729.112	325.928
729.240	323.588
729.368	318.155
729.496	324.041
729.624	321.804
729.752	320.268
729.880	322.062
730.008	318.289
730.137	316.031
730.265	323.216
730.393	317.247
730.521	313.959
730.649	313.381
730.777	316.495
730.905	314.041
731.033	312.969
731.162	310.629
731.290	312.918
731.418	305.979
731.546	296.557
731.674	307.134
731.802	304.443
731.930	306.536
732.058	302.227
732.187	302.031
732.315	304.938
732.443	302.485
732.571	307.113
732.699	292.206
732.827	295.701
732.955	298.258
733.083	294.062
733.212	295.340
733.340	304.866
733.468	297.289
733.596	295.959
733.724	296.361
733.852	295.649
733.980	291.866
734.108	293.598
734.237	296.485
734.365	291.237
734.493	291.216
734.621	287.814
734.749	289.371
734.877	287.567
735.005	285.536
735.133	287.526
735.262	287.206
735.390	281.155
735.518	289.763
735.646	283.938
735.774	287.165
735.902	280.495
736.030	288.897
736.158	284.711
736.287	280.247
736.415	286.021
736.543	280.505
736.671	277.536
736.799	282.330
736.927	277.526
737.055	277.773
737.183	273.938
737.312	277.763
737.440	274.505
737.568	277.577
737.696	278.845
737.824	272.835
737.952	305.732
738.080	269.247
738.208	271.031
738.337	271.536
738.465	268.351
738.593	268.454
738.721	266.175
738.849	265.753
738.977	268.237
739.105	266.392
739.233	268.608
739.362	262.742
739.490	263.598
739.618	267.206
739.746	262.309
739.874	262.835
740.002	264.309
740.130	258.732
740.258	265.701
740.387	264.196
740.515	261.062
740.643	255.619
740.771	257.845
740.899	257.041
741.027	252.515
741.155	257.680
741.283	253.134
741.412	261.660
741.540	260.856
741.668	256.021
741.796	254.804
741.924	253.918
742.052	251.990
742.180	247.402
742.308	249.021
742.437	249.938
742.565	251.814
742.693	246.691
742.821	247.691
742.949	245.155
743.077	247.155
743.205	249.598
743.333	246.278
743.462	244.320
743.590	245.309
743.718	244.227
743.846	242.454
743.974	240.505
744.102	239.619
744.230	240.814
744.358	240.175
744.487	239.825
744.615	237.649
744.743	241.340
744.871	236.206
744.999	231.588
745.127	239.598
745.255	230.412
745.383	233.784
745.512	235.093
745.640	231.216
745.768	232.887
745.896	233.629
746.024	231.629
746.152	234.567
746.280	232.237
746.408	229.546
746.537	228.567
746.665	232.392
746.793	228.577
746.921	228.309
747.049	230.639
747.177	224.258
747.305	226.567
747.433	225.227
747.562	224.320
747.690	227.206
747.818	222.969
747.946	223.814
748.074	221.258
748.202	221.227
748.330	219.825
748.458	219.577
748.587	223.052
748.715	218.536
748.843	216.268
748.971	217.784
749.099	216.948
749.227	217.928
749.355	218.928
749.483	213.598
749.612	217.000
749.740	220.258
749.868	217.732
749.996	215.753
750.124	217.021
750.252	218.546
750.380	215.227
750.508	216.948
750.637	211.732
750.765	212.742
750.893	212.660
751.021	210.557
751.149	213.639
751.277	212.268
751.405	206.454
751.533	211.588
751.662	205.680
751.790	211.423
751.918	205.237
752.046	208.845
752.174	205.175
752.302	208.175
752.430	204.588
752.558	210.412
752.687	202.959
752.815	205.722
752.943	203.649
753.071	202.732
753.199	202.742
753.327	204.433
753.455	204.134
753.583	199.794
753.712	198.546
753.840	200.402
753.968	202.670
754.096	197.856
754.224	200.237
754.352	195.227
754.480	199.165
754.608	197.361
754.737	195.144
754.865	202.619
754.993	195.588
755.121	196.979
755.249	194.845
755.377	192.887
755.505	190.485
755.633	196.186
755.762	194.567
755.890	194.546
756.018	192.536
756.146	192.113
756.274	191.093
756.402	190.722
756.530	193.371
756.658	189.948
756.787	188.392
756.915	189.412
757.043	187.825
757.171	186.392
757.299	186.866
757.427	184.443
757.555	185.845
757.683	184.835
757.812	188.062
757.940	182.258
758.068	184.000
758.196	185.443
758.324	186.124
758.452	182.010
758.580	181.361
758.708	178.649
758.837	180.031
758.965	181.701
759.093	179.938
759.221	179.691
759.349	180.948
759.477	179.918
759.605	178.443
759.733	183.485
759.862	178.010
759.990	174.897
760.118	177.351
760.246	176.711
760.374	174.278
760.502	178.062
760.630	173.598
760.758	173.969
760.887	174.546
761.015	175.711
761.143	175.526
761.271	176.619
761.399	175.093
761.527	172.237
761.655	174.619
761.783	170.175
761.912	174.052
762.040	171.722
762.168	170.598
762.296	170.990
762.424	169.979
762.552	167.897
762.680	169.608
762.808	169.546
762.937	169.876
763.065	166.320
763.193	167.299
763.321	167.299
763.449	163.433
763.577	165.794
763.705	168.825
763.833	162.216
763.962	160.134
764.090	163.495
764.218	160.979
764.346	160.464
764.474	158.794
764.602	161.732
764.730	163.577
764.858	159.814
764.987	160.010
765.115	160.577
765.243	159.969
765.371	161.753
765.499	158.722
765.627	159.412
765.755	158.969
765.883	158.237
766.012	159.691
766.140	158.402
766.268	156.732
766.396	160.237
766.524	155.216
766.652	158.454
766.780	153.814
766.908	154.155
767.037	157.423
767.165	156.907
767.293	160.113
767.421	156.072
767.549	154.691
767.677	159.866
767.805	153.969
767.933	156.443
768.062	155.794
768.190	156.175
768.318	153.825
768.446	154.289
768.574	154.505
768.702	150.794
768.830	153.701
768.958	152.237
769.087	153.062
769.215	154.320
769.343	151.722
769.471	153.103
769.599	152.258
769.727	153.856
769.855	151.216
769.983	156.887
770.112	154.856
770.240	153.206
770.368	150.814
770.496	149.052
770.624	151.113
770.752	153.289
770.880	153.990
771.008	152.113
771.137	150.320
771.265	153.186
771.393	152.876
771.521	149.124
771.649	152.340
771.777	151.320
771.905	152.515
772.033	151.206
772.162	146.402
772.290	148.691
772.418	147.000
772.546	148.464
772.674	153.907
772.802	150.835
772.930	148.454
773.058	149.619
773.187	151.340
773.315	147.010
773.443	150.722
773.571	148.505
773.699	149.052
773.827	149.454
773.955	150.402
774.083	147.155
774.212	144.433
774.340	147.660
774.468	147.062
774.596	147.010
774.724	144.948
774.852	151.134
774.980	148.134
775.108	147.598
775.237	146.660
775.365	144.938
775.493	146.216
775.621	147.113
775.749	146.144
775.877	148.990
776.005	147.268
776.133	145.381
776.262	146.897
776.390	146.216
776.518	144.227
776.646	146.021
776.774	145.381
776.902	143.031
777.030	144.206
777.158	145.845
777.287	147.041
777.415	145.155
777.543	147.361
777.671	143.619
777.799	144.340
777.927	144.722
778.055	142.928
778.183	140.464
778.312	145.361
778.440	144.825
778.568	144.165
778.696	144.969
778.824	141.814
778.952	142.742
779.080	142.753
779.208	140.268
779.337	144.299
779.465	142.876
779.593	141.031
779.721	145.237
779.849	140.371
779.977	142.629
780.105	142.742
780.233	142.175
780.362	140.278
780.490	137.928
780.618	142.536
780.746	140.351
780.874	143.742
781.002	141.753
781.130	139.732
781.258	140.113
781.387	141.701
781.515	140.619
781.643	139.784
781.771	141.247
781.899	139.711
782.027	138.392
782.155	138.103
782.283	139.536
782.412	138.268
782.540	138.515
782.668	141.361
782.796	140.021
782.924	140.454
783.052	138.103
783.180	136.515
783.308	136.588
783.437	139.351
783.565	137.495
783.693	136.361
783.821	137.454
783.949	138.309
784.077	139.093
784.205	135.515
784.333	140.320
784.462	138.320
784.590	135.299
784.718	135.330
784.846	138.732
784.974	138.402
785.102	136.340
785.230	136.155
785.358	134.206
785.487	136.134
785.615	135.144
785.743	133.268
785.871	134.928
785.999	136.278
786.127	137.227
786.255	136.423
786.383	133.784
786.512	133.938
786.640	135.062
786.768	134.052
786.896	132.959
787.024	133.309
787.152	133.433
787.280	135.258
787.408	134.887
787.537	135.175
787.665	134.969
787.793	135.680
787.921	133.990
788.049	135.835
788.177	137.175
788.305	133.845
788.433	134.495
788.562	132.701
788.690	133.732
788.818	129.784
788.946	133.175
789.074	129.381
789.202	130.588
789.330	133.567
789.458	135.340
789.587	132.237
789.715	135.505
789.843	129.701
789.971	131.062
790.099	132.103
790.227	131.474
790.355	132.402
790.483	131.763
790.612	132.144
790.740	131.907
790.868	129.763
790.996	132.474
791.124	130.784
791.252	132.237
791.380	129.495
791.508	130.031
791.637	130.794
791.765	128.412
791.893	129.041
792.021	129.196
792.149	129.258
792.277	129.948
792.405	129.711
792.533	131.753
792.662	128.835
792.790	127.742
792.918	129.052
793.046	129.392
793.174	130.454
793.302	129.845
793.430	128.680
793.558	129.268
793.687	129.361
793.815	127.969
793.943	129.773
794.071	126.567
794.199	126.093
794.327	128.392
794.455	127.577
794.583	130.557
794.712	126.660
794.840	128.371
794.968	127.866
795.096	126.773
795.224	125.227
795.352	127.577
795.480	123.866
795.608	123.742
795.737	124.773
795.865	124.670
795.993	126.072
796.121	126.206
796.249	125.412
796.377	126.433
796.505	124.691
796.633	124.227
796.762	124.938
796.890	124.340
797.018	125.289
797.146	127.031
797.274	124.423
797.402	123.732
797.530	122.289
797.658	123.876
797.787	125.237
797.915	124.392
798.043	124.701
798.171	124.526
798.299	123.732
798.427	123.588
798.555	125.763
798.683	123.206
798.812	124.278
798.940	124.175
799.068	122.907
799.196	123.557
799.324	123.381
799.452	124.660
799.580	124.010
799.708	122.948
799.837	121.794
799.965	121.165
800.093	124.691
800.221	123.268
800.349	122.010
800.477	121.351
800.605	120.351
800.733	120.722
800.862	120.031
800.990	123.144
801.118	120.247
801.246	122.258
801.374	123.649
801.502	121.454
801.630	121.845
801.758	121.814
801.887	121.670
802.015	119.000
802.143	120.289
802.271	120.392
802.399	120.722
802.527	118.969
802.655	122.660
802.783	118.742
802.912	120.433
803.040	119.124
803.168	118.412
803.296	123.546
803.424	118.938
803.552	117.660
803.680	119.742
803.808	118.588
803.937	118.804
804.065	118.990
804.193	118.639
804.321	118.588
804.449	119.629
804.577	117.392
804.705	120.629
804.833	120.165
804.962	120.495
805.090	117.948
805.218	119.577
805.346	118.124
805.474	120.299
805.602	116.814
805.730	118.495
805.858	118.505
805.987	117.979
806.115	119.278
806.243	117.495
806.371	118.320
806.499	118.443
806.627	117.423
806.755	115.082
806.883	116.320
807.012	115.041
807.140	118.206
807.268	115.763
807.396	117.515
807.524	116.866
807.652	117.835
807.780	118.680
807.908	118.619
808.037	117.433
808.165	118.258
808.293	114.814
808.421	117.052
808.549	116.619
808.677	116.876
808.805	117.825
808.933	117.794
809.062	118.433
809.190	116.124
809.318	116.588
809.446	118.598
809.574	114.918
809.702	115.258
809.830	114.052
809.958	115.907
810.087	114.454
810.215	117.361
810.343	116.464
810.471	114.629
810.599	115.062
810.727	118.649
810.855	117.093
810.983	117.000
811.112	115.938
811.240	116.093
811.368	113.907
811.496	113.660
811.624	115.619
811.752	115.495
811.880	114.649
812.008	114.649
812.137	115.619
812.265	115.041
812.393	114.588
812.521	115.794
812.649	114.258
812.777	114.588
812.905	113.361
813.033	115.567
813.162	112.629
813.290	115.464
813.418	111.351
813.546	112.526
813.674	114.124
813.802	113.216
813.930	112.928
814.058	113.897
814.187	114.876
814.315	113.433
814.443	114.330
814.571	113.155
814.699	112.557
814.827	113.423
814.955	113.608
815.083	112.794
815.212	114.021
815.340	112.454
815.468	112.691
815.596	113.010
815.724	117.546
815.852	116.732
815.980	114.701
816.108	112.670
816.237	114.423
816.365	114.227
816.493	115.010
816.621	113.804
816.749	112.412
816.877	120.371
817.005	114.010
817.133	116.165
817.262	113.876
817.390	113.866
817.518	112.062
817.646	110.124
817.774	110.546
817.902	111.948
818.030	111.979
818.158	111.402
818.287	111.629
818.415	110.773
818.543	112.289
818.671	112.928
818.799	111.021
818.927	111.134
819.055	114.557
819.183	114.515
819.312	113.103
819.440	110.660
819.568	110.392
819.696	111.196
819.824	110.660
819.952	110.887
820.080	111.948
820.208	110.866
820.337	112.485
820.465	108.505
820.593	109.938
820.721	111.144
820.849	110.670
820.977	110.680
821.105	111.093
821.233	110.165
821.362	112.082
821.490	112.526
821.618	110.866
821.746	110.474
821.874	109.031
822.002	110.175
822.130	110.196
822.258	111.299
822.387	110.031
822.515	110.804
822.643	111.072
822.771	108.959
822.899	111.515
823.027	108.361
823.155	110.876
823.283	111.649
823.412	109.072
823.540	109.670
823.668	109.928
823.796	109.227
823.924	107.825
824.052	109.979
824.180	110.010
824.308	110.113
824.437	111.144
824.565	110.742
824.693	109.557
824.821	109.021
824.949	109.299
825.077	109.536
825.205	107.361
825.333	108.515
825.462	109.062
825.590	108.175
825.718	108.856
825.846	109.381
825.974	108.526
826.102	108.010
826.230	108.907
826.358	108.082
826.487	107.433
826.615	108.155
826.743	109.041
826.871	107.072
826.999	108.021
827.127	109.680
827.255	108.546
827.383	108.124
827.512	109.175
827.640	110.340
827.768	108.918
827.896	108.887
828.024	107.412
828.152	107.072
828.280	109.753
828.408	110.072
828.537	109.010
828.665	108.340
828.793	109.340
828.921	108.670
829.049	106.825
829.177	104.990
829.305	108.546
829.433	107.948
829.562	108.680
829.690	106.804
829.818	108.392
829.946	106.021
830.074	106.588
830.202	107.052
830.330	106.227
830.458	105.897
830.587	108.443
830.715	106.825
830.843	108.361
830.971	109.227
831.099	109.041
831.227	108.443
831.355	107.546
831.483	107.660
831.612	108.722
831.740	106.959
831.868	106.371
831.996	106.639
832.124	108.928
832.252	107.866
832.380	106.979
832.508	108.103
832.637	107.825
832.765	107.794
832.893	107.392
833.021	107.320
833.149	105.515
833.277	107.402
833.405	106.392
833.533	106.206
833.662	107.134
833.790	105.918
833.918	107.732
834.046	107.062
834.174	108.227
834.302	107.495
834.430	107.557
834.558	108.144
834.687	106.876
834.815	107.464
834.943	105.062
835.071	106.443
835.199	104.753
835.327	106.258
835.455	106.814
835.583	105.825
835.712	107.155
835.840	107.948
835.968	107.485
836.096	107.093
836.224	105.505
836.352	105.268
836.480	106.258
836.608	106.330
836.737	107.979
836.865	106.072
836.993	107.876
837.121	108.536
837.249	105.948
837.377	105.536
837.505	105.062
837.633	105.856
837.762	107.010
837.890	106.412
838.018	105.309
838.146	106.309
838.274	105.629
838.402	106.196
838.530	107.237
838.658	105.072
838.787	104.505
838.915	105.392
839.043	104.784
839.171	105.794
839.299	104.639
839.427	107.072
839.555	106.124
839.683	106.784
839.812	107.608
839.940	105.691
840.068	106.856
840.196	105.247
840.324	107.268
840.452	105.196
840.580	104.557
840.708	105.227
840.837	106.216
840.965	105.753
841.093	104.278
841.221	106.258
841.349	105.031
841.477	105.361
841.605	104.928
841.733	103.763
841.862	106.082
841.990	106.423
842.118	106.247
842.246	105.206
842.374	104.072
842.502	106.216
842.630	104.804
842.758	104.701
842.887	105.134
843.015	105.794
843.143	106.021
843.271	105.124
843.399	105.928
843.527	104.753
843.655	105.536
843.783	105.392
843.912	103.825
844.040	104.320
844.168	104.660
844.296	105.134
844.424	104.763
844.552	107.866
844.680	105.000
844.808	104.629
844.937	102.608
845.065	104.031
845.193	104.515
845.321	105.433
845.449	105.845
845.577	105.165
845.705	104.608
845.833	103.268
845.962	103.330
846.090	105.309
846.218	104.701
846.346	105.588
846.474	103.619
846.602	104.289
846.730	103.825
846.858	104.918
846.987	103.722
847.115	104.639
847.243	103.505
847.371	105.351
847.499	104.237
847.627	104.722
847.755	105.588
847.883	104.969
848.012	104.381
848.140	103.526
848.268	104.969
848.396	105.062
848.524	105.866
848.652	103.876
848.780	103.433
848.908	104.928
849.037	104.237
849.165	103.526
849.293	104.835
849.421	104.371
849.549	104.144
849.677	103.186
849.805	105.093
849.933	103.608
850.062	105.268
850.190	103.381
850.318	103.464
850.446	103.536
850.574	103.371
850.702	103.660
850.830	103.443
850.958	103.268
851.087	104.299
851.215	104.206
851.343	103.763
851.471	104.938
851.599	103.773
851.727	103.825
851.855	103.753
851.983	103.876
852.112	102.969
852.240	104.175
852.368	103.216
852.496	102.876
852.624	105.093
852.752	104.876
852.880	103.082
853.008	102.598
853.137	102.845
853.265	102.567
853.393	102.320
853.521	103.155
853.649	104.134
853.777	103.526
853.905	103.701
854.033	104.546
854.162	104.021
854.290	103.557
854.418	104.021
854.546	103.258
854.674	103.423
854.802	102.887
854.930	103.309
855.058	102.557
855.187	104.134
855.315	103.082
855.443	103.186
855.571	103.567
855.699	103.515
855.827	101.732
855.955	102.722
856.083	104.381
856.212	102.289
856.340	103.495
856.468	104.546
856.596	103.175
856.724	104.670
856.852	104.722
856.980	101.557
857.108	103.402
857.237	102.278
857.365	103.165
857.493	103.010
857.621	102.124
857.749	101.887
857.877	102.165
858.005	102.165
858.133	101.062
858.262	102.423
858.390	102.505
858.518	103.062
858.646	102.711
858.774	102.309
858.902	102.691
859.030	102.227
859.158	105.062
859.287	102.206
859.415	100.433
859.543	101.784
859.671	102.454
859.799	102.340
859.927	102.876
860.055	103.526
860.183	102.567
860.312	102.619
860.440	101.289
860.568	102.711
860.696	102.134
860.824	102.660
860.952	102.330
861.080	102.423
861.208	102.010
861.337	99.722
861.465	101.753
861.593	103.784
861.721	103.577
861.849	102.320
861.977	102.402
862.105	101.412
862.233	103.732
862.362	103.165
862.490	101.392
862.618	101.371
862.746	100.928
862.874	103.227
863.002	102.897
863.130	102.289
863.258	102.784
863.387	102.351
863.515	102.443
863.643	101.433
863.771	103.258
863.899	102.526
864.027	102.856
864.155	103.320
864.283	101.928
864.412	101.794
864.540	102.722
864.668	102.454
864.796	102.485
864.924	101.216
865.052	102.701
865.180	104.505
865.308	101.680
865.437	101.206
865.565	100.660
865.693	101.113
865.821	102.289
865.949	102.959
866.077	104.072
866.205	103.237
866.333	103.526
866.462	101.619
866.590	102.784
866.718	102.175
866.846	103.010
866.974	103.928
867.102	102.155
867.230	103.588
867.358	103.216
867.487	102.753
867.615	102.454
867.743	103.052
867.871	103.144
867.999	102.557
868.127	101.856
868.255	101.845
868.383	101.113
868.512	102.897
868.640	101.784
868.768	101.464
868.896	101.124
869.024	100.402
869.152	102.082
869.280	102.175
869.408	101.856
869.537	102.216
869.665	102.258
869.793	101.670
869.921	101.938
870.049	102.722
870.177	102.186
870.305	101.237
870.433	101.742
870.562	102.381
870.690	101.278
870.818	101.124
870.946	101.763
871.074	101.825
871.202	103.124
871.330	101.041
871.458	102.649
871.587	101.351
871.715	102.320
871.843	102.639
871.971	101.804
872.099	100.392
872.227	102.412
872.355	102.680
872.483	101.485
872.612	101.773
872.740	100.763
872.868	101.711
872.996	101.309
873.124	100.866
873.252	102.753
873.380	101.753
873.508	100.433
873.637	102.227
873.765	101.742
873.893	101.825
874.021	102.392
874.149	102.990
874.277	102.907
874.405	103.247
874.533	101.907
874.662	101.784
874.790	102.062
874.918	99.876
875.046	100.474
875.174	100.567
875.302	101.268
875.430	101.680
875.558	101.227
875.687	102.598
875.815	103.000
875.943	101.608
876.071	103.577
876.199	102.918
876.327	100.113
876.455	102.196
876.583	102.289
876.712	102.309
876.840	102.258
876.968	101.309
877.096	101.309
877.224	102.021
877.352	100.876
877.480	101.753
877.608	100.515
877.737	101.505
877.865	102.155
877.993	101.918
878.121	101.113
878.249	100.814
878.377	101.268
878.505	101.082
878.633	101.165
878.762	102.753
878.890	100.866
879.018	101.062
879.146	101.732
879.274	102.423
879.402	102.928
879.530	100.701
879.658	99.639
879.787	100.289
879.915	100.691
880.043	102.010
880.171	101.948
880.299	100.742
880.427	100.485
880.555	100.031
880.683	102.515
880.812	101.866
880.940	102.093
881.068	101.247
881.196	101.701
881.324	101.196
881.452	100.670
881.580	102.021
881.708	101.206
881.837	101.093
881.965	99.928
882.093	100.196
882.221	100.814
882.349	98.649
882.477	101.608
882.605	101.227
882.733	101.113
882.862	101.670
882.990	103.598
883.118	102.443
883.246	101.897
883.374	100.897
883.502	100.969
883.630	102.144
883.758	100.897
883.887	100.340
884.015	100.959
884.143	102.639
884.271	101.464
884.399	101.392
884.527	100.454
884.655	101.371
884.783	100.794
884.912	100.010
885.040	102.052
885.168	102.546
885.296	100.845
885.424	100.907
885.552	100.928
885.680	99.814
885.808	100.474
885.937	101.897
886.065	99.918
886.193	100.351
886.321	100.680
886.449	100.526
886.577	101.567
886.705	99.794
886.833	99.443
886.962	101.629
887.090	99.402
887.218	99.918
887.346	101.660
887.474	99.371
887.602	98.464
887.730	100.052
887.858	99.598
887.987	101.639
888.115	100.371
888.243	100.948
888.371	100.753
888.499	101.959
888.627	100.113
888.755	99.629
888.883	101.268
889.012	100.526
889.140	101.216
889.268	99.546
889.396	102.412
889.524	99.495
889.652	100.216
889.780	101.196
889.908	99.144
890.037	100.433
890.165	98.876
890.293	98.433
890.421	100.526
890.549	100.433
890.677	98.845
890.805	101.082
890.933	101.052
891.062	100.722
891.190	99.691
891.318	101.608
891.446	101.495
891.574	100.876
891.702	99.588
891.830	100.330
891.958	101.175
892.087	101.464
892.215	101.649
892.343	101.794
892.471	99.495
892.599	101.598
892.727	101.062
892.855	102.052
892.983	100.711
893.112	102.371
893.240	101.041
893.368	100.763
893.496	101.093
893.624	99.010
893.752	100.804
893.880	99.742
894.008	101.856
894.137	101.577
894.265	100.938
894.393	100.423
894.521	102.206
894.649	101.526
894.777	100.165
894.905	100.598
895.033	101.351
895.162	102.454
895.290	101.546
895.418	101.588
895.546	101.062
895.674	100.711
895.802	100.000
895.930	102.021
896.058	101.608
896.187	100.670
896.315	101.742
896.443	99.381
896.571	101.093
896.699	100.753
896.827	100.320
896.955	100.155
897.083	101.423
897.212	102.165
897.340	100.082
897.468	98.907
897.596	99.660
897.724	99.309
897.852	101.124
897.980	99.268
898.108	99.567
898.237	101.361
898.365	101.330
898.493	100.515
898.621	99.237
898.749	99.897
898.877	100.959
899.005	101.021
899.133	101.340
899.262	101.515
899.390	100.278
899.518	101.381
899.646	100.454
899.774	100.588
899.902	100.186
900.030	103.021
900.158	102.124
900.287	101.103
900.415	101.072
900.543	100.711
900.671	102.134
900.799	99.856
900.927	101.546
901.055	101.330
901.183	100.299
901.312	101.711
901.440	100.041
901.568	101.526
901.696	100.938
901.824	100.887
901.952	100.505
902.080	100.443
902.208	99.505
902.337	100.402
902.465	101.103
902.593	100.619
902.721	100.402
902.849	101.021
902.977	100.619
903.105	102.021
903.233	100.041
903.362	99.959
903.490	98.722
903.618	98.546
903.746	99.320
903.874	100.588
904.002	102.320
904.130	101.536
904.258	100.887
904.387	102.031
904.515	101.155
904.643	100.505
904.771	100.866
904.899	100.330
905.027	100.402
905.155	101.216
905.283	100.546
905.412	101.567
905.540	100.495
905.668	101.701
905.796	100.784
905.924	101.361
906.052	100.309
906.180	102.124
906.308	100.907
906.437	99.330
906.565	100.938
906.693	101.897
906.821	101.918
906.949	100.485
907.077	100.082
907.205	100.464
907.333	101.320
907.462	101.825
907.590	100.753
907.718	100.990
907.846	100.299
907.974	100.155
908.102	99.959
908.230	98.938
908.358	99.722
908.487	99.010
908.615	101.206
908.743	102.093
908.871	100.381
908.999	99.825
909.127	99.887
909.255	100.485
909.383	101.320
909.512	101.412
909.640	101.227
909.768	100.082
909.896	101.062
910.024	101.381
910.152	103.237
910.280	101.753
910.408	99.660
910.537	100.299
910.665	100.206
910.793	100.000
910.921	100.557
911.049	100.711
911.177	101.103
911.305	101.278
911.433	102.000
911.562	100.876
911.690	101.979
911.818	101.680
911.946	101.031
912.074	100.299
912.202	100.175
912.330	100.629
912.458	100.474
912.587	100.423
912.715	99.598
912.843	102.588
912.971	104.052
913.099	103.113
913.227	102.258
913.355	103.000
913.483	100.340
913.612	102.134
913.740	102.495
913.868	102.268
