sample4v_at_750.00nm_cut_at_1200.50Y_01.dat
19.06.2023
10:54:05
cut middle at Y: 1200.50
top cursor: 1249 down cursor: 1152 mean of: 97 lines , 2560 datapoints
wavelength(nm)	intensity[arb. units]
585.996	1493.227
586.124	1445.381
586.252	1436.557
586.380	1430.546
586.508	1434.546
586.637	1438.526
586.765	1436.031
586.893	1443.546
587.021	1450.990
587.149	1455.670
587.277	1454.289
587.405	1465.918
587.533	1450.515
587.662	1443.753
587.790	1453.392
587.918	1455.588
588.046	1451.660
588.174	1464.186
588.302	1465.763
588.430	1458.835
588.558	1464.577
588.687	1465.876
588.815	1472.237
588.943	1474.959
589.071	1468.124
589.199	1459.969
589.327	1468.649
589.455	1454.206
589.583	1479.629
589.712	1449.021
589.840	1471.505
589.968	1461.289
590.096	1465.649
590.224	1455.216
590.352	1474.082
590.480	1475.598
590.608	1474.103
590.737	1464.928
590.865	1469.515
590.993	1471.856
591.121	1471.711
591.249	1478.742
591.377	1482.330
591.505	1479.825
591.633	1481.794
591.762	1484.866
591.890	1485.072
592.018	1494.299
592.146	1480.629
592.274	1485.155
592.402	1476.959
592.530	1495.392
592.658	1488.402
592.787	1496.722
592.915	1493.000
593.043	1494.299
593.171	1506.856
593.299	1502.196
593.427	1513.206
593.555	1516.247
593.683	1510.454
593.812	1529.856
593.940	1536.216
594.068	1527.649
594.196	1528.598
594.324	1543.134
594.452	1543.979
594.580	1541.835
594.708	1555.515
594.837	1537.155
594.965	1561.629
595.093	1558.206
595.221	1557.443
595.349	1573.113
595.477	1585.680
595.605	1598.557
595.733	1588.381
595.862	1603.711
595.990	1593.825
596.118	1605.567
596.246	1615.907
596.374	1618.072
596.502	1613.598
596.630	1636.299
596.758	1615.938
596.887	1622.742
597.015	1630.330
597.143	1628.433
597.271	1620.010
597.399	1623.093
597.527	1623.660
597.655	1604.608
597.783	1596.742
597.912	1622.938
598.040	1631.784
598.168	1625.474
598.296	1617.948
598.424	1626.969
598.552	1620.392
598.680	1616.907
598.808	1614.856
598.937	1617.124
599.065	1611.165
599.193	1607.237
599.321	1624.247
599.449	1616.031
599.577	1608.010
599.705	1621.691
599.833	1621.515
599.962	1623.804
600.090	1613.732
600.218	1644.268
600.346	1619.165
600.474	1626.454
600.602	1624.505
600.730	1633.247
600.858	1644.309
600.987	1629.794
601.115	1633.567
601.243	1640.773
601.371	1639.072
601.499	1639.402
601.627	1649.433
601.755	1657.392
601.883	1664.876
602.012	1666.536
602.140	1663.722
602.268	1674.608
602.396	1681.010
602.524	1665.103
602.652	1680.546
602.780	1715.598
602.908	1701.082
603.037	1725.505
603.165	1709.021
603.293	1710.680
603.421	1715.361
603.549	1735.763
603.677	1727.144
603.805	1725.412
603.933	1738.010
604.062	1747.443
604.190	1748.938
604.318	1777.711
604.446	1769.299
604.574	1783.144
604.702	1770.320
604.830	1785.155
604.958	1802.371
605.087	1794.247
605.215	1806.835
605.343	1809.959
605.471	1801.052
605.599	1829.969
605.727	1827.495
605.855	1834.103
605.983	1826.124
606.112	1841.062
606.240	1839.753
606.368	1849.433
606.496	1834.742
606.624	1848.794
606.752	1855.784
606.880	1857.794
607.008	1858.144
607.137	1852.134
607.265	1879.216
607.393	1884.866
607.521	1862.454
607.649	1863.804
607.777	1871.155
607.905	1865.340
608.033	1877.608
608.162	1872.351
608.290	1866.722
608.418	1865.330
608.546	1866.701
608.674	1867.505
608.802	1873.876
608.930	1883.237
609.058	1884.268
609.187	1887.392
609.315	1860.660
609.443	1889.856
609.571	1882.247
609.699	1875.918
609.827	1893.845
609.955	1890.485
610.083	1867.938
610.212	1866.938
610.340	1881.010
610.468	1899.670
610.596	1889.495
610.724	1866.103
610.852	1897.041
610.980	1885.948
611.108	1893.412
611.237	1908.093
611.365	1883.299
611.493	1884.773
611.621	1887.093
611.749	1899.763
611.877	1913.701
612.005	1883.639
612.133	1916.464
612.262	1926.031
612.390	1908.423
612.518	1912.629
612.646	1930.598
612.774	1919.464
612.902	1921.794
613.030	1943.845
613.158	1937.629
613.287	1963.031
613.415	1946.485
613.543	1958.515
613.671	1955.103
613.799	1959.887
613.927	1964.763
614.055	1974.361
614.183	1979.103
614.312	1983.856
614.440	1984.794
614.568	1988.629
614.696	2019.722
614.824	2013.381
614.952	2017.021
615.080	2010.010
615.208	2029.196
615.337	2044.103
615.465	2027.928
615.593	2027.763
615.721	2036.948
615.849	2040.670
615.977	2048.144
616.105	2045.845
616.233	2063.876
616.362	2065.773
616.490	2058.814
616.618	2078.536
616.746	2083.701
616.874	2075.948
617.002	2073.773
617.130	2084.598
617.258	2096.381
617.387	2083.361
617.515	2081.113
617.643	2101.670
617.771	2138.454
617.899	2102.330
618.027	2094.031
618.155	2109.454
618.283	2100.381
618.412	2108.732
618.540	2109.299
618.668	2115.835
618.796	2101.629
618.924	2114.598
619.052	2132.505
619.180	2125.227
619.308	2130.464
619.437	2140.814
619.565	2116.577
619.693	2126.536
619.821	2147.629
619.949	2141.732
620.077	2145.443
620.205	2145.649
620.333	2137.062
620.462	2158.505
620.590	2143.784
620.718	2186.598
620.846	2144.381
620.974	2145.082
621.102	2146.268
621.230	2172.938
621.358	2154.845
621.487	2152.979
621.615	2167.773
621.743	2149.021
621.871	2163.381
621.999	2137.928
622.127	2166.454
622.255	2166.433
622.383	2164.866
622.512	2155.515
622.640	2161.670
622.768	2179.381
622.896	2154.216
623.024	2150.629
623.152	2156.392
623.280	2157.959
623.408	2161.866
623.537	2172.052
623.665	2156.072
623.793	2180.948
623.921	2161.825
624.049	2181.649
624.177	2170.845
624.305	2161.825
624.433	2162.979
624.562	2165.165
624.690	2189.897
624.818	2154.948
624.946	2180.907
625.074	2151.351
625.202	2168.082
625.330	2164.773
625.458	2185.804
625.587	2173.124
625.715	2199.268
625.843	2193.031
625.971	2164.454
626.099	2183.897
626.227	2183.134
626.355	2184.052
626.483	2181.320
626.612	2182.113
626.740	2181.031
626.868	2181.897
626.996	2187.608
627.124	2178.536
627.252	2187.753
627.380	2194.794
627.508	2185.794
627.637	2194.722
627.765	2195.278
627.893	2204.773
628.021	2193.299
628.149	2203.804
628.277	2233.237
628.405	2219.773
628.533	2211.165
628.662	2214.887
628.790	2232.258
628.918	2212.505
629.046	2230.670
629.174	2217.515
629.302	2234.010
629.430	2227.598
629.558	2225.969
629.687	2235.010
629.815	2234.536
629.943	2255.392
630.071	2252.546
630.199	2258.093
630.327	2264.711
630.455	2254.938
630.583	2268.340
630.712	2270.165
630.840	2277.990
630.968	2267.680
631.096	2283.660
631.224	2280.887
631.352	2274.247
631.480	2276.289
631.608	2302.340
631.737	2262.526
631.865	2298.031
631.993	2294.113
632.121	2315.340
632.249	2299.237
632.377	2302.680
632.505	2291.691
632.633	2285.670
632.762	2284.371
632.890	2285.629
633.018	2296.206
633.146	2279.928
633.274	2293.495
633.402	2295.062
633.530	2283.546
633.658	2298.948
633.787	2293.784
633.915	2275.258
634.043	2281.660
634.171	2291.526
634.299	2288.186
634.427	2274.402
634.555	2324.371
634.683	2298.278
634.812	2298.794
634.940	2290.093
635.068	2268.340
635.196	2294.722
635.324	2278.320
635.452	2267.165
635.580	2295.093
635.708	2251.876
635.837	2266.794
635.965	2258.052
636.093	2251.866
636.221	2264.351
636.349	2260.196
636.477	2248.567
636.605	2256.062
636.733	2237.866
636.862	2251.113
636.990	2238.474
637.118	2254.412
637.246	2240.732
637.374	2257.979
637.502	2237.536
637.630	2227.144
637.758	2233.134
637.887	2225.474
638.015	2248.433
638.143	2232.474
638.271	2219.443
638.399	2228.897
638.527	2192.660
638.655	2225.866
638.783	2232.216
638.912	2236.722
639.040	2216.258
639.168	2207.505
639.296	2200.969
639.424	2223.093
639.552	2188.567
639.680	2228.278
639.808	2213.072
639.937	2204.495
640.065	2204.515
640.193	2203.144
640.321	2224.093
640.449	2205.495
640.577	2188.144
640.705	2186.103
640.833	2202.969
640.962	2225.711
641.090	2203.742
641.218	2192.948
641.346	2204.031
641.474	2205.021
641.602	2215.918
641.730	2211.320
641.858	2193.134
641.987	2212.753
642.115	2227.577
642.243	2207.052
642.371	2237.175
642.499	2208.598
642.627	2213.619
642.755	2187.835
642.883	2204.979
643.012	2205.990
643.140	2237.062
643.268	2227.474
643.396	2213.866
643.524	2210.186
643.652	2241.134
643.780	2191.577
643.908	2195.464
644.037	2210.309
644.165	2217.753
644.293	2222.546
644.421	2198.649
644.549	2214.784
644.677	2223.237
644.805	2200.577
644.933	2197.701
645.062	2224.299
645.190	2214.175
645.318	2212.454
645.446	2195.464
645.574	2202.948
645.702	2200.701
645.830	2202.907
645.958	2205.536
646.087	2175.876
646.215	2195.701
646.343	2177.103
646.471	2204.289
646.599	2179.907
646.727	2178.907
646.855	2171.619
646.983	2169.969
647.112	2179.041
647.240	2189.000
647.368	2175.206
647.496	2155.144
647.624	2165.423
647.752	2153.608
647.880	2132.351
648.008	2170.876
648.137	2145.577
648.265	2137.433
648.393	2174.598
648.521	2132.175
648.649	2171.928
648.777	2119.959
648.905	2125.433
649.033	2159.443
649.162	2127.031
649.290	2106.804
649.418	2106.206
649.546	2133.845
649.674	2103.082
649.802	2112.093
649.930	2096.186
650.058	2089.680
650.187	2089.309
650.315	2091.320
650.443	2075.278
650.571	2067.515
650.699	2056.856
650.827	2076.010
650.955	2083.959
651.083	2062.649
651.212	2045.897
651.340	2062.206
651.468	2047.423
651.596	2055.670
651.724	2037.134
651.852	2013.794
651.980	2029.763
652.108	2023.237
652.237	2016.763
652.365	1998.144
652.493	2009.948
652.621	1993.299
652.749	2009.773
652.877	2002.227
653.005	1987.588
653.133	1984.021
653.262	1977.113
653.390	1984.216
653.518	1996.031
653.646	1971.299
653.774	1962.113
653.902	1955.680
654.030	1958.866
654.158	1948.072
654.287	1962.784
654.415	1927.856
654.543	1944.711
654.671	1930.134
654.799	1931.278
654.927	1922.763
655.055	1920.567
655.183	1914.526
655.312	1928.649
655.440	1897.629
655.568	1901.320
655.696	1894.309
655.824	1901.258
655.952	1886.082
656.080	1891.093
656.208	1886.897
656.337	1883.660
656.465	1878.082
656.593	1880.485
656.721	1872.990
656.849	1864.309
656.977	1860.753
657.105	1866.381
657.233	1848.969
657.362	1837.639
657.490	1836.577
657.618	1825.639
657.746	1838.866
657.874	1825.258
658.002	1823.052
658.130	1830.763
658.258	1821.216
658.387	1803.990
658.515	1801.608
658.643	1793.629
658.771	1816.670
658.899	1789.845
659.027	1777.010
659.155	1781.825
659.283	1758.897
659.412	1766.320
659.540	1769.680
659.668	1758.206
659.796	1767.351
659.924	1765.062
660.052	1758.845
660.180	1753.639
660.308	1741.773
660.437	1732.330
660.565	1742.361
660.693	1740.268
660.821	1724.412
660.949	1739.392
661.077	1712.082
661.205	1710.454
661.333	1718.392
661.462	1719.732
661.590	1703.206
661.718	1714.134
661.846	1705.474
661.974	1702.639
662.102	1683.515
662.230	1689.165
662.358	1683.526
662.487	1669.309
662.615	1664.825
662.743	1682.948
662.871	1660.340
662.999	1659.371
663.127	1671.959
663.255	1666.887
663.383	1660.309
663.512	1650.443
663.640	1641.381
663.768	1635.546
663.896	1639.866
664.024	1630.825
664.152	1628.464
664.280	1647.825
664.408	1627.876
664.537	1605.546
664.665	1621.392
664.793	1617.773
664.921	1601.598
665.049	1617.093
665.177	1597.804
665.305	1602.938
665.433	1599.938
665.562	1622.691
665.690	1592.165
665.818	1587.062
665.946	1586.619
666.074	1597.134
666.202	1574.918
666.330	1579.928
666.458	1603.423
666.587	1569.258
666.715	1578.918
666.843	1559.371
666.971	1558.598
667.099	1553.928
667.227	1550.567
667.355	1564.639
667.483	1551.000
667.612	1544.505
667.740	1544.588
667.868	1531.196
667.996	1536.103
668.124	1531.423
668.252	1519.887
668.380	1522.010
668.508	1520.072
668.637	1507.052
668.765	1511.443
668.893	1511.216
669.021	1510.670
669.149	1502.062
669.277	1490.505
669.405	1493.041
669.533	1487.144
669.662	1485.515
669.790	1483.062
669.918	1464.113
670.046	1463.608
670.174	1470.000
670.302	1465.165
670.430	1467.629
670.558	1444.577
670.687	1460.021
670.815	1444.979
670.943	1452.969
671.071	1438.103
671.199	1434.052
671.327	1414.299
671.455	1428.722
671.583	1419.433
671.712	1417.227
671.840	1409.062
671.968	1402.536
672.096	1389.052
672.224	1382.990
672.352	1378.340
672.480	1363.959
672.608	1374.165
672.737	1362.722
672.865	1374.495
672.993	1358.856
673.121	1360.649
673.249	1338.113
673.377	1345.361
673.505	1334.381
673.633	1333.649
673.762	1327.258
673.890	1327.773
674.018	1312.845
674.146	1313.629
674.274	1303.093
674.402	1298.701
674.530	1294.423
674.658	1287.598
674.787	1288.629
674.915	1279.577
675.043	1278.216
675.171	1265.897
675.299	1258.299
675.427	1252.082
675.555	1272.010
675.683	1230.021
675.812	1229.680
675.940	1236.990
676.068	1223.227
676.196	1221.082
676.324	1215.443
676.452	1218.722
676.580	1216.454
676.708	1203.402
676.837	1205.433
676.965	1200.000
677.093	1204.990
677.221	1202.103
677.349	1183.216
677.477	1190.794
677.605	1184.701
677.733	1176.000
677.862	1156.227
677.990	1171.979
678.118	1153.113
678.246	1153.268
678.374	1148.093
678.502	1141.485
678.630	1136.412
678.758	1148.876
678.887	1139.103
679.015	1124.041
679.143	1117.227
679.271	1115.021
679.399	1114.103
679.527	1113.000
679.655	1110.722
679.783	1105.258
679.912	1096.608
680.040	1094.598
680.168	1099.691
680.296	1084.237
680.424	1094.010
680.552	1083.505
680.680	1083.526
680.808	1077.969
680.937	1071.680
681.065	1079.608
681.193	1059.485
681.321	1069.474
681.449	1054.237
681.577	1054.567
681.705	1051.742
681.833	1053.876
681.962	1049.629
682.090	1050.000
682.218	1039.928
682.346	1041.773
682.474	1040.320
682.602	1026.268
682.730	1021.072
682.858	1033.845
682.987	1018.763
683.115	1015.165
683.243	1012.361
683.371	1014.021
683.499	1008.103
683.627	1006.103
683.755	999.206
683.883	1004.186
684.012	1000.856
684.140	996.247
684.268	995.206
684.396	994.134
684.524	992.753
684.652	993.876
684.780	990.887
684.908	987.887
685.037	982.000
685.165	977.062
685.293	973.619
685.421	976.979
685.549	972.711
685.677	972.722
685.805	971.423
685.933	970.052
686.062	970.753
686.190	952.567
686.318	954.216
686.446	944.505
686.574	954.216
686.702	940.412
686.830	955.237
686.958	944.845
687.087	955.196
687.215	943.485
687.343	923.804
687.471	933.784
687.599	926.443
687.727	929.474
687.855	919.598
687.983	914.897
688.112	919.691
688.240	913.299
688.368	914.485
688.496	910.928
688.624	908.402
688.752	903.557
688.880	891.052
689.008	899.557
689.137	905.794
689.265	879.753
689.393	880.959
689.521	883.495
689.649	892.464
689.777	881.227
689.905	879.753
690.033	875.649
690.162	869.351
690.290	865.412
690.418	863.639
690.546	863.629
690.674	867.031
690.802	854.598
690.930	858.990
691.058	846.392
691.187	843.361
691.315	847.454
691.443	848.381
691.571	845.320
691.699	838.670
691.827	846.907
691.955	830.299
692.083	833.402
692.212	827.608
692.340	825.247
692.468	825.979
692.596	816.299
692.724	814.454
692.852	808.588
692.980	809.876
693.108	803.320
693.237	800.330
693.365	803.144
693.493	798.093
693.621	799.186
693.749	792.299
693.877	782.216
694.005	781.196
694.133	772.196
694.262	775.918
694.390	775.784
694.518	774.134
694.646	769.567
694.774	766.701
694.902	768.351
695.030	757.588
695.158	768.598
695.287	752.021
695.415	749.423
695.543	748.474
695.671	747.835
695.799	747.794
695.927	742.701
696.055	729.485
696.183	737.773
696.312	732.268
696.440	730.577
696.568	725.588
696.696	717.680
696.824	723.340
696.952	714.433
697.080	714.784
697.208	703.289
697.337	712.763
697.465	701.990
697.593	712.216
697.721	697.598
697.849	702.041
697.977	704.454
698.105	695.742
698.233	695.928
698.362	685.856
698.490	695.588
698.618	681.629
698.746	687.031
698.874	676.268
699.002	671.784
699.130	675.515
699.258	674.804
699.387	665.412
699.515	664.381
699.643	669.124
699.771	656.990
699.899	665.258
700.027	656.381
700.155	656.660
700.283	656.773
700.412	646.660
700.540	647.969
700.668	643.835
700.796	637.196
700.924	632.959
701.052	628.763
701.180	637.639
701.308	627.299
701.437	622.619
701.565	632.320
701.693	615.010
701.821	622.608
701.949	616.268
702.077	616.258
702.205	611.124
702.333	610.866
702.462	604.299
702.590	601.608
702.718	601.392
702.846	591.814
702.974	592.351
703.102	592.423
703.230	586.010
703.358	583.268
703.487	583.856
703.615	589.351
703.743	577.340
703.871	570.103
703.999	566.969
704.127	569.175
704.255	568.598
704.383	564.052
704.512	561.763
704.640	550.546
704.768	559.711
704.896	555.041
705.024	547.897
705.152	550.423
705.280	552.938
705.408	548.866
705.537	540.371
705.665	540.608
705.793	533.701
705.921	531.423
706.049	532.072
706.177	528.670
706.305	526.608
706.433	526.649
706.562	520.959
706.690	519.392
706.818	522.979
706.946	519.619
707.074	525.216
707.202	507.608
707.330	510.753
707.458	509.784
707.587	502.804
707.715	504.639
707.843	501.680
707.971	498.990
708.099	503.495
708.227	496.629
708.355	497.381
708.483	495.299
708.612	490.660
708.740	495.258
708.868	480.876
708.996	484.742
709.124	481.268
709.252	485.268
709.380	488.907
709.508	478.351
709.637	471.701
709.765	469.938
709.893	475.423
710.021	470.505
710.149	472.804
710.277	466.557
710.405	471.670
710.533	469.897
710.662	457.526
710.790	464.753
710.918	461.784
711.046	462.979
711.174	461.392
711.302	458.763
711.430	450.124
711.558	453.392
711.687	451.969
711.815	449.000
711.943	453.588
712.071	449.897
712.199	444.175
712.327	445.969
712.455	447.897
712.583	452.464
712.712	439.639
712.840	446.000
712.968	434.505
713.096	436.186
713.224	440.351
713.352	438.464
713.480	432.113
713.608	430.412
713.737	433.680
713.865	429.876
713.993	433.454
714.121	424.608
714.249	430.165
714.377	425.814
714.505	430.722
714.633	425.608
714.762	420.897
714.890	419.237
715.018	419.536
715.146	419.742
715.274	414.227
715.402	409.010
715.530	404.804
715.658	407.196
715.787	410.825
715.915	407.371
716.043	408.227
716.171	402.670
716.299	397.670
716.427	399.845
716.555	404.845
716.683	398.763
716.812	395.567
716.940	401.474
717.068	396.031
717.196	394.010
717.324	394.412
717.452	390.258
717.580	394.423
717.708	386.258
717.837	387.948
717.965	385.082
718.093	388.546
718.221	381.103
718.349	384.361
718.477	378.742
718.605	379.835
718.733	381.732
718.862	381.711
718.990	375.732
719.118	375.402
719.246	373.320
719.374	372.763
719.502	372.155
719.630	370.856
719.758	371.979
719.887	368.247
720.015	364.701
720.143	362.381
720.271	369.392
720.399	364.959
720.527	356.897
720.655	358.979
720.783	358.082
720.912	357.773
721.040	352.299
721.168	358.598
721.296	348.423
721.424	350.608
721.552	345.041
721.680	342.000
721.808	344.206
721.937	338.299
722.065	342.495
722.193	344.124
722.321	341.485
722.449	343.206
722.577	339.124
722.705	337.320
722.833	336.598
722.962	335.649
723.090	337.763
723.218	332.113
723.346	331.784
723.474	331.619
723.602	331.124
723.730	335.113
723.858	327.660
723.987	326.227
724.115	324.515
724.243	325.680
724.371	321.598
724.499	321.309
724.627	317.711
724.755	318.866
724.883	317.876
725.012	315.784
725.140	317.155
725.268	313.515
725.396	311.186
725.524	313.577
725.652	305.371
725.780	308.134
725.908	306.928
726.037	300.186
726.165	306.835
726.293	303.536
726.421	299.619
726.549	304.134
726.677	304.041
726.805	298.876
726.933	298.371
727.062	296.505
727.190	297.969
727.318	297.082
727.446	295.804
727.574	293.165
727.702	291.969
727.830	291.969
727.958	293.505
728.087	294.113
728.215	288.577
728.343	292.196
728.471	288.412
728.599	282.619
728.727	285.464
728.855	290.227
728.983	279.938
729.112	282.464
729.240	282.320
729.368	277.041
729.496	280.196
729.624	280.825
729.752	279.691
729.880	278.144
730.008	275.866
730.137	274.175
730.265	273.309
730.393	273.464
730.521	273.794
730.649	276.753
730.777	266.753
730.905	270.216
731.033	267.175
731.162	270.144
731.290	270.546
731.418	270.485
731.546	269.835
731.674	263.278
731.802	261.660
731.930	262.649
732.058	260.969
732.187	256.732
732.315	260.495
732.443	260.557
732.571	257.155
732.699	253.268
732.827	255.165
732.955	253.268
733.083	251.814
733.212	252.948
733.340	255.784
733.468	256.928
733.596	254.320
733.724	252.371
733.852	252.443
733.980	248.526
734.108	246.268
734.237	250.134
734.365	246.299
734.493	249.165
734.621	244.608
734.749	247.423
734.877	245.814
735.005	250.206
735.133	246.515
735.262	241.392
735.390	238.546
735.518	237.948
735.646	246.021
735.774	242.330
735.902	237.649
736.030	239.835
736.158	238.794
736.287	234.124
736.415	235.041
736.543	236.443
736.671	234.371
736.799	234.412
736.927	235.175
737.055	234.320
737.183	231.010
737.312	230.412
737.440	227.536
737.568	232.371
737.696	227.825
737.824	226.124
737.952	255.464
738.080	229.155
738.208	225.835
738.337	228.526
738.465	223.969
738.593	225.021
738.721	222.918
738.849	225.093
738.977	224.165
739.105	224.948
739.233	222.979
739.362	218.691
739.490	221.340
739.618	225.268
739.746	215.876
739.874	217.381
740.002	221.134
740.130	215.515
740.258	218.052
740.387	215.134
740.515	218.794
740.643	215.515
740.771	213.763
740.899	211.278
741.027	209.588
741.155	211.412
741.283	209.082
741.412	213.237
741.540	208.907
741.668	209.515
741.796	207.546
741.924	210.237
742.052	208.072
742.180	207.753
742.308	203.010
742.437	202.381
742.565	207.928
742.693	206.206
742.821	209.742
742.949	201.732
743.077	205.969
743.205	204.907
743.333	205.371
743.462	200.773
743.590	200.773
743.718	202.567
743.846	202.608
743.974	200.526
744.102	198.794
744.230	198.701
744.358	194.732
744.487	199.577
744.615	196.144
744.743	195.938
744.871	193.175
744.999	195.845
745.127	194.103
745.255	194.247
745.383	192.505
745.512	192.062
745.640	192.629
745.768	191.753
745.896	188.072
746.024	189.186
746.152	195.113
746.280	190.536
746.408	191.351
746.537	188.093
746.665	187.928
746.793	189.856
746.921	186.402
747.049	182.722
747.177	186.062
747.305	185.103
747.433	187.845
747.562	183.608
747.690	187.412
747.818	185.990
747.946	186.649
748.074	180.495
748.202	181.340
748.330	180.454
748.458	183.021
748.587	180.670
748.715	182.258
748.843	181.938
748.971	182.546
749.099	184.598
749.227	180.546
749.355	179.000
749.483	176.237
749.612	180.814
749.740	180.907
749.868	180.825
749.996	176.093
750.124	181.804
750.252	178.237
750.380	174.701
750.508	181.433
750.637	177.155
750.765	181.227
750.893	178.866
751.021	172.515
751.149	177.155
751.277	174.526
751.405	172.619
751.533	174.649
751.662	173.907
751.790	172.412
751.918	169.175
752.046	172.485
752.174	170.464
752.302	173.763
752.430	169.763
752.558	173.268
752.687	170.619
752.815	169.763
752.943	171.268
753.071	167.845
753.199	166.392
753.327	168.433
753.455	167.918
753.583	167.918
753.712	167.299
753.840	164.041
753.968	169.165
754.096	167.505
754.224	166.495
754.352	163.753
754.480	166.052
754.608	159.392
754.737	164.918
754.865	166.041
754.993	162.433
755.121	161.897
755.249	160.165
755.377	159.227
755.505	160.784
755.633	162.258
755.762	159.804
755.890	162.918
756.018	159.495
756.146	158.124
756.274	155.330
756.402	158.773
756.530	162.309
756.658	159.742
756.787	160.309
756.915	156.392
757.043	155.062
757.171	155.959
757.299	155.701
757.427	154.351
757.555	155.103
757.683	155.918
757.812	155.804
757.940	153.814
758.068	153.515
758.196	156.031
758.324	153.918
758.452	153.330
758.580	152.330
758.708	150.412
758.837	153.505
758.965	154.371
759.093	151.289
759.221	150.608
759.349	149.845
759.477	149.784
759.605	147.742
759.733	153.567
759.862	150.711
759.990	147.062
760.118	148.794
760.246	148.722
760.374	148.979
760.502	147.794
760.630	147.959
760.758	149.443
760.887	148.237
761.015	148.804
761.143	147.825
761.271	147.856
761.399	148.423
761.527	148.856
761.655	144.701
761.783	144.536
761.912	147.402
762.040	146.072
762.168	144.495
762.296	144.918
762.424	145.794
762.552	142.433
762.680	142.412
762.808	146.918
762.937	145.206
763.065	141.371
763.193	141.268
763.321	140.485
763.449	144.866
763.577	139.062
763.705	147.082
763.833	141.247
763.962	139.082
764.090	140.887
764.218	137.206
764.346	138.082
764.474	139.588
764.602	139.598
764.730	139.515
764.858	141.990
764.987	140.897
765.115	138.247
765.243	137.402
765.371	140.258
765.499	135.031
765.627	136.763
765.755	136.021
765.883	137.144
766.012	136.031
766.140	136.814
766.268	136.608
766.396	140.866
766.524	137.206
766.652	135.784
766.780	135.938
766.908	136.258
767.037	136.082
767.165	135.155
767.293	138.309
767.421	134.237
767.549	133.660
767.677	135.557
767.805	136.278
767.933	135.268
768.062	134.763
768.190	136.691
768.318	134.526
768.446	133.907
768.574	133.330
768.702	128.320
768.830	132.711
768.958	130.351
769.087	128.639
769.215	132.505
769.343	132.216
769.471	131.619
769.599	131.402
769.727	132.031
769.855	127.660
769.983	134.000
770.112	131.309
770.240	133.268
770.368	129.619
770.496	128.546
770.624	130.979
770.752	131.763
770.880	129.856
771.008	130.526
771.137	127.000
771.265	128.258
771.393	126.866
771.521	127.629
771.649	131.216
771.777	129.113
771.905	127.340
772.033	128.588
772.162	128.670
772.290	126.526
772.418	127.155
772.546	127.443
772.674	129.031
772.802	127.680
772.930	125.928
773.058	125.258
773.187	128.670
773.315	125.990
773.443	127.103
773.571	125.237
773.699	125.000
773.827	127.175
773.955	127.381
774.083	124.371
774.212	124.268
774.340	126.093
774.468	123.536
774.596	124.247
774.724	124.732
774.852	126.732
774.980	122.876
775.108	123.186
775.237	123.278
775.365	122.680
775.493	122.763
775.621	121.763
775.749	123.928
775.877	123.887
776.005	123.495
776.133	122.010
776.262	123.959
776.390	120.918
776.518	123.588
776.646	122.701
776.774	120.041
776.902	119.763
777.030	120.041
777.158	123.763
777.287	124.278
777.415	121.742
777.543	123.969
777.671	120.505
777.799	119.619
777.927	120.423
778.055	118.423
778.183	120.639
778.312	120.402
778.440	120.897
778.568	121.814
778.696	121.794
778.824	120.794
778.952	120.505
779.080	119.144
779.208	118.680
779.337	121.320
779.465	119.866
779.593	119.299
779.721	119.423
779.849	118.052
779.977	119.299
780.105	120.320
780.233	119.649
780.362	118.660
780.490	116.990
780.618	118.928
780.746	117.206
780.874	119.000
781.002	117.928
781.130	118.392
781.258	117.845
781.387	117.371
781.515	115.979
781.643	116.814
781.771	117.856
781.899	118.474
782.027	115.093
782.155	116.753
782.283	117.144
782.412	115.526
782.540	116.814
782.668	116.443
782.796	116.041
782.924	118.227
783.052	116.763
783.180	114.979
783.308	116.186
783.437	117.000
783.565	114.722
783.693	115.474
783.821	116.464
783.949	117.021
784.077	116.392
784.205	114.309
784.333	114.371
784.462	116.680
784.590	115.763
784.718	114.907
784.846	113.814
784.974	116.010
785.102	114.041
785.230	113.577
785.358	114.082
785.487	115.052
785.615	114.546
785.743	113.938
785.871	114.309
785.999	114.763
786.127	114.794
786.255	113.835
786.383	113.216
786.512	113.732
786.640	113.196
786.768	112.742
786.896	113.247
787.024	111.990
787.152	112.216
787.280	115.691
787.408	115.485
787.537	112.938
787.665	112.577
787.793	113.000
787.921	112.979
788.049	114.216
788.177	113.608
788.305	111.784
788.433	112.320
788.562	111.577
788.690	113.629
788.818	109.546
788.946	109.289
789.074	109.629
789.202	110.753
789.330	111.835
789.458	114.526
789.587	112.866
789.715	110.753
789.843	110.990
789.971	112.237
790.099	113.526
790.227	112.381
790.355	110.093
790.483	111.619
790.612	111.557
790.740	111.588
790.868	110.990
790.996	111.299
791.124	111.691
791.252	112.351
791.380	111.742
791.508	111.113
791.637	110.639
791.765	108.381
791.893	110.546
792.021	110.649
792.149	109.742
792.277	111.072
792.405	111.979
792.533	110.196
792.662	110.330
792.790	109.309
792.918	109.907
793.046	108.557
793.174	109.186
793.302	109.515
793.430	109.144
793.558	110.526
793.687	110.526
793.815	109.392
793.943	109.505
794.071	107.928
794.199	109.124
794.327	109.907
794.455	108.093
794.583	108.144
794.712	108.526
794.840	108.021
794.968	108.103
795.096	106.546
795.224	107.247
795.352	107.918
795.480	108.381
795.608	107.804
795.737	106.402
795.865	107.206
795.993	107.526
796.121	108.598
796.249	108.701
796.377	109.825
796.505	108.165
796.633	107.340
796.762	107.433
796.890	107.495
797.018	105.680
797.146	109.247
797.274	107.103
797.402	108.320
797.530	108.464
797.658	107.021
797.787	110.289
797.915	108.351
798.043	107.969
798.171	106.753
798.299	106.495
798.427	105.794
798.555	106.309
798.683	107.454
798.812	107.680
798.940	107.289
799.068	106.948
799.196	107.144
799.324	106.567
799.452	107.320
799.580	106.742
799.708	106.794
799.837	107.474
799.965	107.299
800.093	106.598
800.221	107.412
800.349	106.144
800.477	106.392
800.605	105.753
800.733	105.505
800.862	104.649
800.990	105.371
801.118	105.804
801.246	104.990
801.374	107.351
801.502	105.825
801.630	105.701
801.758	105.608
801.887	105.258
802.015	103.825
802.143	104.320
802.271	105.330
802.399	105.711
802.527	105.093
802.655	105.237
802.783	103.495
802.912	103.918
803.040	105.144
803.168	105.423
803.296	105.897
803.424	104.660
803.552	105.299
803.680	105.278
803.808	104.268
803.937	104.216
804.065	104.876
804.193	104.392
804.321	104.134
804.449	105.258
804.577	104.031
804.705	104.784
804.833	104.918
804.962	104.598
805.090	104.443
805.218	106.526
805.346	105.948
805.474	104.433
805.602	104.598
805.730	103.969
805.858	104.835
805.987	104.186
806.115	105.691
806.243	105.237
806.371	104.711
806.499	104.165
806.627	105.175
806.755	103.402
806.883	104.794
807.012	103.247
807.140	103.742
807.268	101.814
807.396	103.969
807.524	104.134
807.652	104.062
807.780	104.464
807.908	104.289
808.037	104.515
808.165	105.588
808.293	105.021
808.421	102.495
808.549	102.979
808.677	102.918
808.805	103.082
808.933	103.680
809.062	103.144
809.190	103.351
809.318	103.340
809.446	103.299
809.574	102.433
809.702	103.206
809.830	103.495
809.958	103.010
810.087	103.041
810.215	105.206
810.343	104.227
810.471	102.711
810.599	103.804
810.727	104.856
810.855	103.825
810.983	103.722
811.112	103.660
811.240	102.392
811.368	103.979
811.496	102.619
811.624	102.381
811.752	102.165
811.880	102.742
812.008	103.835
812.137	104.392
812.265	103.526
812.393	101.784
812.521	102.649
812.649	101.979
812.777	102.134
812.905	102.577
813.033	101.639
813.162	101.701
813.290	101.928
813.418	102.474
813.546	101.515
813.674	102.340
813.802	100.845
813.930	100.072
814.058	101.196
814.187	103.134
814.315	101.670
814.443	102.309
814.571	101.423
814.699	101.402
814.827	102.784
814.955	101.784
815.083	103.072
815.212	102.763
815.340	98.773
815.468	100.979
815.596	101.299
815.724	103.155
815.852	103.402
815.980	102.258
816.108	101.866
816.237	101.856
816.365	102.577
816.493	102.320
816.621	102.392
816.749	102.082
816.877	101.598
817.005	103.577
817.133	105.649
817.262	101.619
817.390	102.082
817.518	102.124
817.646	99.969
817.774	100.392
817.902	101.907
818.030	100.505
818.158	101.340
818.287	100.557
818.415	102.082
818.543	101.320
818.671	101.670
818.799	100.619
818.927	100.856
819.055	101.000
819.183	103.515
819.312	100.876
819.440	100.515
819.568	101.258
819.696	101.536
819.824	100.505
819.952	101.103
820.080	101.526
820.208	100.649
820.337	101.052
820.465	99.351
820.593	100.186
820.721	100.247
820.849	100.567
820.977	101.567
821.105	101.619
821.233	100.918
821.362	100.876
821.490	100.948
821.618	100.907
821.746	100.557
821.874	99.629
822.002	99.948
822.130	100.835
822.258	100.773
822.387	100.103
822.515	99.773
822.643	99.206
822.771	98.918
822.899	99.845
823.027	99.402
823.155	101.278
823.283	99.979
823.412	100.278
823.540	100.433
823.668	100.680
823.796	100.794
823.924	100.103
824.052	99.464
824.180	99.340
824.308	100.959
824.437	101.000
824.565	101.918
824.693	99.701
824.821	99.660
824.949	100.732
825.077	101.196
825.205	98.464
825.333	99.856
825.462	100.577
825.590	100.175
825.718	97.845
825.846	98.134
825.974	100.103
826.102	99.392
826.230	99.371
826.358	99.495
826.487	100.907
826.615	98.876
826.743	101.773
826.871	100.546
826.999	98.969
827.127	101.557
827.255	101.258
827.383	100.412
827.512	101.268
827.640	102.247
827.768	100.351
827.896	99.052
828.024	99.103
828.152	98.897
828.280	100.113
828.408	99.588
828.537	101.062
828.665	98.990
828.793	100.629
828.921	100.814
829.049	99.990
829.177	98.794
829.305	100.814
829.433	99.907
829.562	98.680
829.690	98.742
829.818	99.722
829.946	98.649
830.074	97.969
830.202	99.814
830.330	98.557
830.458	97.948
830.587	100.402
830.715	98.691
830.843	99.804
830.971	100.186
831.099	99.845
831.227	99.082
831.355	100.227
831.483	100.010
831.612	100.155
831.740	99.433
831.868	98.887
831.996	98.732
832.124	102.103
832.252	99.113
832.380	100.474
832.508	102.423
832.637	99.000
832.765	98.928
832.893	100.113
833.021	99.474
833.149	98.660
833.277	100.206
833.405	98.619
833.533	98.010
833.662	99.969
833.790	97.247
833.918	100.237
834.046	99.825
834.174	99.794
834.302	101.320
834.430	98.567
834.558	100.237
834.687	98.825
834.815	99.536
834.943	98.299
835.071	101.103
835.199	99.505
835.327	98.247
835.455	97.856
835.583	98.897
835.712	99.598
835.840	99.443
835.968	99.041
836.096	100.247
836.224	99.567
836.352	98.464
836.480	99.649
836.608	98.247
836.737	99.742
836.865	100.289
836.993	101.278
837.121	100.124
837.249	98.175
837.377	98.887
837.505	97.320
837.633	99.649
837.762	99.278
837.890	97.928
838.018	97.113
838.146	97.041
838.274	98.423
838.402	99.072
838.530	98.567
838.658	98.784
838.787	98.216
838.915	97.000
839.043	97.948
839.171	98.866
839.299	98.546
839.427	98.660
839.555	99.835
839.683	99.392
839.812	100.567
839.940	98.845
840.068	101.206
840.196	98.835
840.324	100.134
840.452	98.186
840.580	98.144
840.708	99.268
840.837	98.814
840.965	99.876
841.093	98.938
841.221	99.526
841.349	99.598
841.477	99.680
841.605	99.340
841.733	99.041
841.862	100.474
841.990	99.134
842.118	100.278
842.246	98.866
842.374	98.423
842.502	98.485
842.630	98.649
842.758	97.381
842.887	98.670
843.015	98.577
843.143	99.371
843.271	99.474
843.399	99.742
843.527	98.979
843.655	97.588
843.783	98.979
843.912	97.433
844.040	97.845
844.168	99.773
844.296	99.794
844.424	97.763
844.552	100.351
844.680	99.454
844.808	99.289
844.937	98.515
845.065	98.701
845.193	99.423
845.321	98.897
845.449	100.639
845.577	99.206
845.705	98.474
845.833	97.866
845.962	99.052
846.090	99.464
846.218	98.639
846.346	100.216
846.474	97.691
846.602	97.423
846.730	97.598
846.858	98.433
846.987	97.835
847.115	98.804
847.243	97.443
847.371	99.979
847.499	99.000
847.627	99.289
847.755	100.464
847.883	99.454
848.012	100.093
848.140	98.711
848.268	99.155
848.396	98.907
848.524	101.155
848.652	99.309
848.780	97.722
848.908	98.711
849.037	97.773
849.165	97.485
849.293	97.186
849.421	98.144
849.549	98.423
849.677	99.959
849.805	99.196
849.933	99.938
850.062	99.433
850.190	98.206
850.318	98.598
850.446	98.454
850.574	99.144
850.702	99.753
850.830	98.278
850.958	97.835
851.087	98.639
851.215	98.072
851.343	98.175
851.471	98.000
851.599	98.784
851.727	99.485
851.855	98.639
851.983	99.072
852.112	98.196
852.240	99.320
852.368	97.639
852.496	98.196
852.624	99.866
852.752	99.732
852.880	98.299
853.008	99.443
853.137	98.711
853.265	98.227
853.393	97.361
853.521	97.732
853.649	98.845
853.777	98.794
853.905	98.495
854.033	99.082
854.162	97.897
854.290	98.660
854.418	99.227
854.546	98.381
854.674	99.247
854.802	98.155
854.930	98.093
855.058	97.010
855.187	99.608
855.315	99.144
855.443	99.433
855.571	98.278
855.699	99.526
855.827	97.320
855.955	98.103
856.083	99.371
856.212	98.515
856.340	98.340
856.468	99.660
856.596	98.186
856.724	98.567
856.852	99.784
856.980	98.567
857.108	98.948
857.237	98.072
857.365	97.258
857.493	98.866
857.621	98.938
857.749	98.227
857.877	98.588
858.005	99.031
858.133	96.979
858.262	98.072
858.390	98.237
858.518	98.402
858.646	99.381
858.774	98.093
858.902	99.113
859.030	98.856
859.158	99.918
859.287	99.103
859.415	97.144
859.543	98.000
859.671	98.237
859.799	98.216
859.927	99.763
860.055	99.062
860.183	99.196
860.312	98.031
860.440	97.320
860.568	98.155
860.696	98.412
860.824	98.763
860.952	99.258
861.080	97.845
861.208	98.577
861.337	97.186
861.465	98.629
861.593	99.155
861.721	98.691
861.849	98.289
861.977	97.711
862.105	97.443
862.233	99.835
862.362	98.505
862.490	97.299
862.618	97.299
862.746	98.206
862.874	99.021
863.002	98.835
863.130	98.567
863.258	99.557
863.387	98.639
863.515	97.804
863.643	98.052
863.771	98.567
863.899	99.186
864.027	99.619
864.155	99.722
864.283	98.371
864.412	97.866
864.540	97.784
864.668	98.887
864.796	99.155
864.924	97.206
865.052	99.361
865.180	101.608
865.308	98.330
865.437	97.227
865.565	97.340
865.693	97.691
865.821	99.165
865.949	100.969
866.077	101.082
866.205	99.814
866.333	98.464
866.462	98.320
866.590	98.969
866.718	100.464
866.846	100.216
866.974	101.052
867.102	97.526
867.230	100.041
867.358	99.247
867.487	98.629
867.615	99.485
867.743	99.381
867.871	99.608
867.999	98.010
868.127	98.629
868.255	99.320
868.383	99.144
868.512	99.680
868.640	99.216
868.768	100.474
868.896	99.124
869.024	97.134
869.152	99.000
869.280	97.814
869.408	99.113
869.537	100.113
869.665	99.289
869.793	99.412
869.921	97.784
870.049	98.990
870.177	100.464
870.305	98.443
870.433	98.124
870.562	98.546
870.690	98.536
870.818	99.103
870.946	99.072
871.074	98.608
871.202	99.526
871.330	98.557
871.458	99.680
871.587	98.495
871.715	99.289
871.843	97.701
871.971	98.876
872.099	97.948
872.227	99.897
872.355	98.619
872.483	97.649
872.612	98.990
872.740	97.928
872.868	98.412
872.996	98.959
873.124	96.825
873.252	99.835
873.380	100.567
873.508	98.423
873.637	99.856
873.765	98.784
873.893	97.804
874.021	99.299
874.149	99.134
874.277	99.196
874.405	99.598
874.533	99.526
874.662	99.175
874.790	99.691
874.918	98.258
875.046	97.423
875.174	97.742
875.302	98.742
875.430	99.784
875.558	98.237
875.687	99.577
875.815	101.598
875.943	97.773
876.071	100.196
876.199	99.990
876.327	99.351
876.455	99.649
876.583	98.608
876.712	99.082
876.840	98.691
876.968	100.062
877.096	97.856
877.224	99.062
877.352	99.526
877.480	100.289
877.608	99.247
877.737	100.000
877.865	99.134
877.993	98.629
878.121	98.320
878.249	99.175
878.377	98.113
878.505	98.577
878.633	100.268
878.762	100.144
878.890	98.588
879.018	99.732
879.146	100.742
879.274	99.588
879.402	100.052
879.530	96.856
879.658	98.546
879.787	98.196
879.915	99.464
880.043	99.742
880.171	99.289
880.299	99.454
880.427	98.577
880.555	98.763
880.683	100.113
880.812	99.464
880.940	97.938
881.068	99.546
881.196	98.825
881.324	99.330
881.452	99.990
881.580	99.567
881.708	99.567
881.837	98.515
881.965	98.351
882.093	98.814
882.221	98.959
882.349	98.495
882.477	99.794
882.605	100.495
882.733	99.062
882.862	99.856
882.990	101.443
883.118	99.804
883.246	99.412
883.374	99.474
883.502	100.000
883.630	100.103
883.758	98.835
883.887	99.113
884.015	99.701
884.143	100.773
884.271	98.608
884.399	98.969
884.527	99.206
884.655	99.546
884.783	101.247
884.912	98.969
885.040	99.526
885.168	99.948
885.296	99.763
885.424	99.670
885.552	98.959
885.680	99.041
885.808	97.804
885.937	100.866
886.065	97.629
886.193	98.206
886.321	99.505
886.449	100.608
886.577	99.474
886.705	99.124
886.833	98.825
886.962	99.825
887.090	98.000
887.218	98.887
887.346	100.113
887.474	98.320
887.602	97.938
887.730	99.258
887.858	99.546
887.987	98.732
888.115	99.196
888.243	97.866
888.371	98.701
888.499	100.052
888.627	99.474
888.755	98.072
888.883	100.866
889.012	99.928
889.140	98.784
889.268	99.278
889.396	99.907
889.524	99.351
889.652	98.227
889.780	99.773
889.908	98.649
890.037	100.320
890.165	99.474
890.293	97.320
890.421	99.536
890.549	98.629
890.677	98.309
890.805	98.649
890.933	98.680
891.062	98.113
891.190	99.186
891.318	100.268
891.446	98.536
891.574	98.206
891.702	97.990
891.830	99.206
891.958	99.608
892.087	99.443
892.215	100.433
892.343	102.072
892.471	98.753
892.599	100.546
892.727	99.979
892.855	100.814
892.983	99.320
893.112	100.381
893.240	98.330
893.368	99.412
893.496	99.072
893.624	98.557
893.752	100.546
893.880	98.485
894.008	99.351
894.137	101.000
894.265	99.784
894.393	98.433
894.521	100.155
894.649	100.021
894.777	99.381
894.905	99.000
895.033	101.082
895.162	100.649
895.290	99.072
895.418	101.732
895.546	101.144
895.674	99.804
895.802	98.598
895.930	100.639
896.058	100.464
896.187	100.062
896.315	101.361
896.443	99.753
896.571	99.062
896.699	99.876
896.827	98.856
896.955	100.619
897.083	99.784
897.212	100.557
897.340	97.887
897.468	98.289
897.596	98.722
897.724	98.320
897.852	100.474
897.980	98.742
898.108	99.722
898.237	100.278
898.365	99.866
898.493	100.010
898.621	100.062
898.749	99.289
898.877	99.361
899.005	100.443
899.133	100.320
899.262	101.000
899.390	99.299
899.518	99.485
899.646	98.701
899.774	99.938
899.902	98.557
900.030	101.814
900.158	100.753
900.287	100.443
900.415	100.175
900.543	99.753
900.671	101.361
900.799	99.402
900.927	99.227
901.055	98.876
901.183	99.206
901.312	99.866
901.440	100.000
901.568	99.969
901.696	99.381
901.824	99.907
901.952	99.423
902.080	101.134
902.208	100.361
902.337	99.959
902.465	100.134
902.593	99.804
902.721	99.876
902.849	100.691
902.977	99.887
903.105	100.134
903.233	99.526
903.362	99.588
903.490	98.485
903.618	99.608
903.746	99.660
903.874	100.866
904.002	103.546
904.130	102.289
904.258	101.227
904.387	101.165
904.515	101.639
904.643	98.567
904.771	100.206
904.899	100.443
905.027	100.907
905.155	100.546
905.283	100.144
905.412	101.619
905.540	99.330
905.668	99.742
905.796	100.763
905.924	99.928
906.052	99.299
906.180	99.856
906.308	100.082
906.437	99.948
906.565	100.845
906.693	101.052
906.821	102.052
906.949	100.485
907.077	99.072
907.205	100.907
907.333	99.742
907.462	100.670
907.590	99.897
907.718	99.474
907.846	99.948
907.974	99.175
908.102	99.928
908.230	96.711
908.358	98.402
908.487	99.216
908.615	100.485
908.743	101.773
908.871	100.113
908.999	100.454
909.127	99.619
909.255	99.876
909.383	100.227
909.512	101.649
909.640	99.845
909.768	99.794
909.896	101.072
910.024	99.887
910.152	101.536
910.280	101.041
910.408	99.691
910.537	99.722
910.665	100.371
910.793	98.381
910.921	99.732
911.049	98.474
911.177	100.835
911.305	100.938
911.433	100.454
911.562	102.041
911.690	101.814
911.818	101.165
911.946	101.495
912.074	100.433
912.202	99.103
912.330	101.041
912.458	101.134
912.587	99.670
912.715	99.598
912.843	103.474
912.971	103.443
913.099	101.186
913.227	101.773
913.355	102.423
913.483	100.742
913.612	101.474
913.740	102.124
913.868	100.711
