Dunkelspektrum_at_750.00nm_cut_at_1350.00Y_01.dat
15.05.2023
11:27:24
cut middle at Y: 1350.00
top cursor: 1408 down cursor: 1292 mean of: 116 lines , 2560 datapoints
wavelength(nm)	intensity[arb. units]
585.996	128.802
586.124	118.302
586.252	113.578
586.380	114.828
586.508	116.448
586.637	118.026
586.765	114.164
586.893	117.284
587.021	113.776
587.149	122.638
587.277	114.862
587.405	114.345
587.533	116.172
587.662	114.759
587.790	110.922
587.918	112.509
588.046	116.362
588.174	116.129
588.302	113.793
588.430	114.043
588.558	116.422
588.687	111.862
588.815	116.233
588.943	114.741
589.071	113.466
589.199	118.466
589.327	113.750
589.455	113.793
589.583	111.448
589.712	113.362
589.840	115.353
589.968	120.422
590.096	118.405
590.224	115.216
590.352	113.828
590.480	113.586
590.608	112.216
590.737	111.759
590.865	112.440
590.993	113.371
591.121	113.069
591.249	109.733
591.377	113.302
591.505	113.784
591.633	110.836
591.762	113.129
591.890	113.914
592.018	111.698
592.146	112.095
592.274	117.509
592.402	116.638
592.530	113.638
592.658	112.845
592.787	112.371
592.915	114.931
593.043	113.828
593.171	112.621
593.299	116.474
593.427	113.534
593.555	108.353
593.683	108.017
593.812	109.638
593.940	110.966
594.068	112.069
594.196	110.155
594.324	108.595
594.452	110.466
594.580	110.983
594.708	110.422
594.837	109.491
594.965	112.655
595.093	109.828
595.221	111.603
595.349	109.345
595.477	109.207
595.605	114.966
595.733	111.819
595.862	110.017
595.990	111.009
596.118	114.164
596.246	111.664
596.374	110.250
596.502	110.069
596.630	113.750
596.758	109.836
596.887	109.250
597.015	110.621
597.143	110.586
597.271	108.638
597.399	111.664
597.527	112.647
597.655	112.879
597.783	111.733
597.912	111.052
598.040	108.319
598.168	111.767
598.296	111.578
598.424	109.629
598.552	111.750
598.680	112.759
598.808	109.491
598.937	107.509
599.065	108.474
599.193	112.276
599.321	108.379
599.449	106.534
599.577	108.578
599.705	111.707
599.833	112.793
599.962	109.095
600.090	109.793
600.218	114.216
600.346	111.491
600.474	109.207
600.602	107.931
600.730	110.862
600.858	118.802
600.987	112.293
601.115	106.147
601.243	107.250
601.371	114.879
601.499	113.069
601.627	110.224
601.755	117.362
601.883	109.043
602.012	112.724
602.140	107.224
602.268	108.922
602.396	110.948
602.524	129.698
602.652	134.784
602.780	132.112
602.908	112.724
603.037	112.853
603.165	108.302
603.293	107.336
603.421	107.612
603.549	108.414
603.677	107.121
603.805	106.931
603.933	107.052
604.062	110.750
604.190	109.259
604.318	108.543
604.446	106.733
604.574	108.655
604.702	107.819
604.830	107.371
604.958	108.526
605.087	108.138
605.215	107.319
605.343	106.422
605.471	108.336
605.599	110.552
605.727	108.543
605.855	107.638
605.983	107.853
606.112	110.888
606.240	108.957
606.368	113.491
606.496	108.931
606.624	113.905
606.752	109.750
606.880	110.940
607.008	107.466
607.137	108.017
607.265	106.284
607.393	110.207
607.521	108.767
607.649	106.371
607.777	108.060
607.905	111.224
608.033	107.078
608.162	106.060
608.290	106.431
608.418	114.853
608.546	110.991
608.674	108.293
608.802	110.181
608.930	110.638
609.058	107.017
609.187	105.552
609.315	105.983
609.443	108.431
609.571	109.052
609.699	107.578
609.827	107.828
609.955	107.793
610.083	107.922
610.212	108.103
610.340	110.138
610.468	107.750
610.596	108.871
610.724	112.155
610.852	108.759
610.980	111.267
611.108	109.491
611.237	111.026
611.365	107.741
611.493	104.871
611.621	106.388
611.749	106.716
611.877	109.681
612.005	109.603
612.133	108.052
612.262	108.474
612.390	111.353
612.518	110.612
612.646	107.172
612.774	107.129
612.902	105.784
613.030	106.741
613.158	107.526
613.287	107.793
613.415	108.448
613.543	110.560
613.671	109.388
613.799	108.371
613.927	108.181
614.055	112.172
614.183	112.181
614.312	107.431
614.440	107.603
614.568	107.345
614.696	107.750
614.824	107.052
614.952	106.672
615.080	106.121
615.208	105.767
615.337	109.017
615.465	109.052
615.593	110.948
615.721	108.543
615.849	106.966
615.977	106.552
616.105	107.276
616.233	106.250
616.362	109.233
616.490	109.241
616.618	109.241
616.746	107.543
616.874	107.302
617.002	109.836
617.130	110.017
617.258	105.871
617.387	106.629
617.515	107.647
617.643	106.741
617.771	106.405
617.899	106.500
618.027	107.776
618.155	107.638
618.283	111.129
618.412	107.767
618.540	106.078
618.668	108.586
618.796	107.724
618.924	109.862
619.052	107.578
619.180	106.810
619.308	108.371
619.437	108.517
619.565	109.103
619.693	110.784
619.821	107.931
619.949	109.207
620.077	106.569
620.205	108.241
620.333	108.845
620.462	113.319
620.590	109.190
620.718	111.052
620.846	107.931
620.974	108.914
621.102	114.000
621.230	108.310
621.358	107.397
621.487	108.724
621.615	112.121
621.743	108.914
621.871	107.017
621.999	107.293
622.127	106.948
622.255	106.810
622.383	105.078
622.512	106.810
622.640	109.603
622.768	107.552
622.896	107.647
623.024	106.466
623.152	105.716
623.280	108.474
623.408	107.603
623.537	109.009
623.665	110.517
623.793	109.216
623.921	108.621
624.049	113.828
624.177	108.888
624.305	106.095
624.433	107.853
624.562	106.802
624.690	106.802
624.818	107.138
624.946	109.698
625.074	109.250
625.202	109.181
625.330	108.940
625.458	107.060
625.587	105.612
625.715	108.991
625.843	106.819
625.971	108.241
626.099	109.233
626.227	108.612
626.355	106.862
626.483	110.319
626.612	107.741
626.740	103.828
626.868	107.060
626.996	108.905
627.124	106.741
627.252	108.121
627.380	107.914
627.508	105.353
627.637	107.121
627.765	106.845
627.893	111.164
628.021	107.707
628.149	109.034
628.277	110.017
628.405	107.836
628.533	106.681
628.662	105.845
628.790	106.250
628.918	108.121
629.046	111.138
629.174	111.655
629.302	108.276
629.430	106.328
629.558	108.612
629.687	113.112
629.815	107.345
629.943	107.414
630.071	107.862
630.199	110.733
630.327	107.655
630.455	107.181
630.583	105.440
630.712	106.483
630.840	109.224
630.968	106.922
631.096	103.897
631.224	106.586
631.352	108.603
631.480	108.095
631.608	106.500
631.737	105.388
631.865	105.940
631.993	107.267
632.121	108.086
632.249	109.828
632.377	106.836
632.505	108.448
632.633	108.388
632.762	105.552
632.890	105.483
633.018	107.647
633.146	105.440
633.274	107.845
633.402	107.517
633.530	107.707
633.658	108.888
633.787	107.664
633.915	105.069
634.043	105.569
634.171	110.724
634.299	105.621
634.427	106.310
634.555	106.250
634.683	106.871
634.812	107.776
634.940	107.793
635.068	106.767
635.196	106.629
635.324	107.328
635.452	108.474
635.580	108.026
635.708	107.517
635.837	107.784
635.965	105.948
636.093	106.569
636.221	105.517
636.349	106.509
636.477	106.733
636.605	106.897
636.733	107.086
636.862	108.009
636.990	105.543
637.118	107.707
637.246	107.371
637.374	105.664
637.502	107.698
637.630	106.500
637.758	106.569
637.887	106.397
638.015	110.302
638.143	108.397
638.271	108.000
638.399	107.724
638.527	108.190
638.655	107.052
638.783	104.526
638.912	106.009
639.040	105.302
639.168	104.569
639.296	105.267
639.424	107.198
639.552	106.750
639.680	104.974
639.808	105.586
639.937	107.095
640.065	104.379
640.193	108.250
640.321	106.957
640.449	104.784
640.577	106.862
640.705	107.000
640.833	106.733
640.962	106.638
641.090	106.250
641.218	107.129
641.346	106.414
641.474	107.690
641.602	105.784
641.730	107.733
641.858	105.483
641.987	106.578
642.115	106.862
642.243	106.397
642.371	104.914
642.499	105.526
642.627	106.276
642.755	106.543
642.883	105.897
643.012	108.172
643.140	106.336
643.268	107.052
643.396	106.603
643.524	104.638
643.652	103.612
643.780	105.112
643.908	104.716
644.037	105.491
644.165	105.172
644.293	106.207
644.421	107.207
644.549	108.940
644.677	109.362
644.805	106.500
644.933	106.448
645.062	106.759
645.190	106.112
645.318	107.629
645.446	105.500
645.574	106.526
645.702	105.319
645.830	110.509
645.958	107.491
646.087	107.759
646.215	108.043
646.343	106.957
646.471	106.009
646.599	104.966
646.727	105.233
646.855	104.448
646.983	103.586
647.112	105.776
647.240	106.534
647.368	105.009
647.496	107.483
647.624	108.345
647.752	106.612
647.880	106.009
648.008	104.802
648.137	106.483
648.265	105.983
648.393	105.569
648.521	106.629
648.649	104.716
648.777	107.138
648.905	106.302
649.033	107.181
649.162	106.164
649.290	104.983
649.418	107.483
649.546	109.819
649.674	105.164
649.802	107.310
649.930	108.371
650.058	107.328
650.187	105.017
650.315	113.207
650.443	109.466
650.571	105.233
650.699	106.612
650.827	104.172
650.955	106.190
651.083	105.879
651.212	106.259
651.340	104.940
651.468	104.991
651.596	105.422
651.724	106.302
651.852	105.362
651.980	105.319
652.108	105.690
652.237	107.724
652.365	109.233
652.493	106.698
652.621	109.310
652.749	108.828
652.877	109.405
653.005	106.767
653.133	105.776
653.262	104.836
653.390	105.871
653.518	105.793
653.646	104.836
653.774	104.991
653.902	105.466
654.030	109.448
654.158	104.681
654.287	106.103
654.415	104.603
654.543	105.483
654.671	105.552
654.799	105.569
654.927	105.353
655.055	108.466
655.183	104.690
655.312	106.129
655.440	105.310
655.568	106.888
655.696	104.353
655.824	103.741
655.952	105.276
656.080	103.440
656.208	104.647
656.337	105.138
656.465	105.871
656.593	105.095
656.721	102.897
656.849	105.741
656.977	104.905
657.105	103.784
657.233	104.940
657.362	108.241
657.490	106.578
657.618	104.612
657.746	102.931
657.874	105.103
658.002	106.353
658.130	103.698
658.258	106.931
658.387	104.716
658.515	106.267
658.643	107.914
658.771	104.707
658.899	102.603
659.027	105.216
659.155	105.009
659.283	102.914
659.412	104.233
659.540	103.526
659.668	104.672
659.796	106.586
659.924	109.655
660.052	107.655
660.180	106.026
660.308	105.181
660.437	104.078
660.565	107.491
660.693	105.422
660.821	104.483
660.949	104.586
661.077	106.776
661.205	105.086
661.333	105.517
661.462	107.457
661.590	104.310
661.718	104.931
661.846	105.009
661.974	104.707
662.102	107.388
662.230	105.845
662.358	104.379
662.487	104.095
662.615	105.543
662.743	104.483
662.871	103.500
662.999	104.862
663.127	104.052
663.255	105.509
663.383	104.897
663.512	106.250
663.640	105.405
663.768	105.216
663.896	108.690
664.024	108.362
664.152	110.957
664.280	103.379
664.408	103.793
664.537	106.897
664.665	103.543
664.793	106.095
664.921	114.216
665.049	109.690
665.177	106.250
665.305	105.974
665.433	106.526
665.562	107.397
665.690	106.362
665.818	105.905
665.946	106.836
666.074	108.991
666.202	107.707
666.330	106.147
666.458	107.181
666.587	105.871
666.715	104.302
666.843	104.914
666.971	103.517
667.099	102.828
667.227	104.819
667.355	108.440
667.483	109.914
667.612	106.569
667.740	104.147
667.868	105.828
667.996	104.336
668.124	105.259
668.252	107.422
668.380	108.379
668.508	106.629
668.637	106.466
668.765	107.457
668.893	105.681
669.021	104.647
669.149	106.759
669.277	107.129
669.405	106.784
669.533	104.707
669.662	106.198
669.790	106.466
669.918	104.241
670.046	103.155
670.174	108.836
670.302	110.164
670.430	104.698
670.558	106.129
670.687	104.845
670.815	105.017
670.943	106.457
671.071	104.241
671.199	102.060
671.327	106.741
671.455	106.069
671.583	105.595
671.712	109.690
671.840	112.198
671.968	106.422
672.096	105.129
672.224	106.897
672.352	112.448
672.480	108.759
672.608	106.897
672.737	106.552
672.865	106.129
672.993	103.638
673.121	102.974
673.249	106.586
673.377	106.853
673.505	105.853
673.633	108.362
673.762	104.871
673.890	108.578
674.018	110.603
674.146	104.776
674.274	106.664
674.402	105.638
674.530	106.983
674.658	108.638
674.787	106.509
674.915	308.397
675.043	108.345
675.171	103.733
675.299	105.302
675.427	105.431
675.555	107.034
675.683	105.845
675.812	104.155
675.940	107.483
676.068	104.974
676.196	104.422
676.324	104.966
676.452	105.147
676.580	106.974
676.708	106.638
676.837	104.690
676.965	106.345
677.093	106.276
677.221	106.897
677.349	111.026
677.477	106.267
677.605	104.440
677.733	104.216
677.862	103.397
677.990	106.078
678.118	104.345
678.246	105.750
678.374	107.983
678.502	103.578
678.630	103.948
678.758	105.457
678.887	104.716
679.015	103.250
679.143	104.595
679.271	104.897
679.399	103.517
679.527	104.914
679.655	104.259
679.783	104.336
679.912	105.052
680.040	105.164
680.168	104.672
680.296	106.034
680.424	108.552
680.552	107.500
680.680	105.483
680.808	105.612
680.937	104.103
681.065	104.534
681.193	104.293
681.321	106.353
681.449	107.586
681.577	104.905
681.705	108.672
681.833	106.414
681.962	104.250
682.090	104.681
682.218	104.241
682.346	106.948
682.474	106.888
682.602	105.474
682.730	105.009
682.858	105.172
682.987	103.733
683.115	105.147
683.243	107.784
683.371	108.241
683.499	109.793
683.627	105.026
683.755	104.862
683.883	103.405
684.012	105.086
684.140	106.474
684.268	106.897
684.396	105.009
684.524	104.233
684.652	105.397
684.780	106.483
684.908	109.095
685.037	105.922
685.165	106.612
685.293	105.466
685.421	109.112
685.549	108.043
685.677	106.983
685.805	104.241
685.933	106.422
686.062	104.655
686.190	110.457
686.318	107.172
686.446	104.983
686.574	104.509
686.702	108.595
686.830	106.129
686.958	103.052
687.087	103.629
687.215	105.724
687.343	104.379
687.471	107.767
687.599	104.560
687.727	103.509
687.855	103.086
687.983	103.681
688.112	105.836
688.240	105.052
688.368	108.724
688.496	108.155
688.624	105.802
688.752	104.966
688.880	103.112
689.008	103.319
689.137	106.095
689.265	104.974
689.393	103.931
689.521	104.284
689.649	105.810
689.777	104.707
689.905	102.957
690.033	105.888
690.162	106.948
690.290	103.121
690.418	105.095
690.546	105.362
690.674	105.526
690.802	106.069
690.930	102.862
691.058	103.966
691.187	103.716
691.315	104.293
691.443	104.440
691.571	104.207
691.699	104.897
691.827	104.267
691.955	104.819
692.083	105.543
692.212	105.776
692.340	105.043
692.468	106.241
692.596	105.552
692.724	104.276
692.852	103.871
692.980	104.966
693.108	104.672
693.237	105.509
693.365	106.155
693.493	106.578
693.621	104.707
693.749	105.491
693.877	106.241
694.005	105.129
694.133	104.767
694.262	103.379
694.390	104.379
694.518	105.000
694.646	105.043
694.774	106.405
694.902	104.172
695.030	102.500
695.158	104.517
695.287	103.388
695.415	105.845
695.543	106.121
695.671	104.784
695.799	108.836
695.927	105.569
696.055	106.759
696.183	107.862
696.312	106.224
696.440	106.095
696.568	105.155
696.696	103.716
696.824	103.957
696.952	103.724
697.080	104.060
697.208	104.664
697.337	104.371
697.465	105.672
697.593	106.491
697.721	104.000
697.849	106.491
697.977	104.302
698.105	104.345
698.233	105.224
698.362	106.793
698.490	107.172
698.618	107.474
698.746	107.647
698.874	105.112
699.002	104.681
699.130	107.353
699.258	105.172
699.387	102.672
699.515	102.388
699.643	106.922
699.771	106.448
699.899	105.647
700.027	104.431
700.155	105.672
700.283	106.155
700.412	105.957
700.540	102.690
700.668	103.233
700.796	105.440
700.924	103.664
701.052	103.716
701.180	103.724
701.308	104.250
701.437	104.509
701.565	105.621
701.693	108.414
701.821	104.457
701.949	105.095
702.077	104.647
702.205	107.302
702.333	105.233
702.462	106.121
702.590	105.164
702.718	105.216
702.846	103.328
702.974	105.164
703.102	103.362
703.230	105.336
703.358	108.905
703.487	103.483
703.615	104.069
703.743	103.716
703.871	104.940
703.999	104.216
704.127	104.362
704.255	106.216
704.383	106.957
704.512	105.198
704.640	105.233
704.768	107.009
704.896	105.267
705.024	105.043
705.152	109.819
705.280	105.914
705.408	104.655
705.537	104.267
705.665	102.379
705.793	102.276
705.921	104.638
706.049	105.190
706.177	106.017
706.305	104.103
706.433	103.888
706.562	106.509
706.690	105.034
706.818	104.448
706.946	103.000
707.074	108.931
707.202	105.250
707.330	103.224
707.458	107.552
707.587	105.371
707.715	103.655
707.843	104.957
707.971	106.379
708.099	104.284
708.227	103.328
708.355	103.216
708.483	105.164
708.612	106.000
708.740	103.207
708.868	104.129
708.996	104.828
709.124	105.819
709.252	107.086
709.380	105.664
709.508	106.793
709.637	107.922
709.765	105.336
709.893	106.181
710.021	108.371
710.149	107.647
710.277	104.871
710.405	103.121
710.533	102.802
710.662	104.767
710.790	102.621
710.918	102.336
711.046	105.698
711.174	106.095
711.302	109.819
711.430	105.164
711.558	104.543
711.687	107.457
711.815	103.371
711.943	103.819
712.071	101.828
712.199	103.517
712.327	102.112
712.455	106.741
712.583	103.491
712.712	105.034
712.840	105.440
712.968	103.922
713.096	103.793
713.224	104.853
713.352	103.121
713.480	104.276
713.608	107.190
713.737	104.586
713.865	103.129
713.993	105.621
714.121	105.784
714.249	104.733
714.377	107.828
714.505	106.543
714.633	105.853
714.762	105.181
714.890	102.931
715.018	104.345
715.146	105.319
715.274	102.862
715.402	107.767
715.530	106.698
715.658	104.241
715.787	102.086
715.915	103.483
716.043	105.414
716.171	105.922
716.299	105.948
716.427	105.440
716.555	103.241
716.683	103.509
716.812	101.362
716.940	103.948
717.068	102.888
717.196	104.250
717.324	104.578
717.452	103.957
717.580	105.310
717.708	104.440
717.837	104.672
717.965	104.647
718.093	104.336
718.221	103.621
718.349	104.491
718.477	105.078
718.605	103.224
718.733	105.440
718.862	102.948
718.990	102.724
719.118	100.897
719.246	102.552
719.374	105.017
719.502	102.836
719.630	102.974
719.758	105.552
719.887	107.914
720.015	105.655
720.143	105.147
720.271	103.750
720.399	107.991
720.527	104.086
720.655	102.310
720.783	103.319
720.912	104.009
721.040	104.914
721.168	104.862
721.296	103.690
721.424	102.328
721.552	104.009
721.680	104.181
721.808	103.940
721.937	105.345
722.065	105.759
722.193	105.388
722.321	105.069
722.449	102.897
722.577	104.190
722.705	104.733
722.833	104.379
722.962	104.784
723.090	106.509
723.218	104.026
723.346	103.078
723.474	103.940
723.602	103.483
723.730	104.466
723.858	102.595
723.987	106.112
724.115	106.267
724.243	103.888
724.371	103.336
724.499	103.328
724.627	103.983
724.755	105.095
724.883	103.810
725.012	105.629
725.140	103.405
725.268	104.379
725.396	104.397
725.524	105.543
725.652	104.259
725.780	102.716
725.908	105.216
726.037	105.750
726.165	102.276
726.293	103.129
726.421	103.405
726.549	102.388
726.677	102.897
726.805	103.431
726.933	103.414
727.062	106.000
727.190	104.672
727.318	104.716
727.446	106.422
727.574	105.198
727.702	106.284
727.830	106.103
727.958	108.526
728.087	109.440
728.215	101.767
728.343	102.853
728.471	105.466
728.599	106.259
728.727	109.655
728.855	105.603
728.983	103.052
729.112	102.509
729.240	106.078
729.368	102.750
729.496	105.043
729.624	104.862
729.752	106.034
729.880	104.569
730.008	106.543
730.137	106.543
730.265	104.862
730.393	106.552
730.521	102.578
730.649	103.405
730.777	103.276
730.905	103.069
731.033	104.569
731.162	105.405
731.290	103.940
731.418	104.267
731.546	105.836
731.674	105.741
731.802	110.310
731.930	105.767
732.058	102.664
732.187	102.121
732.315	103.578
732.443	104.457
732.571	104.284
732.699	103.069
732.827	102.828
732.955	105.241
733.083	104.922
733.212	104.103
733.340	104.181
733.468	107.948
733.596	105.483
733.724	104.543
733.852	104.724
733.980	103.491
734.108	103.603
734.237	103.784
734.365	103.828
734.493	104.578
734.621	108.819
734.749	106.500
734.877	106.172
735.005	109.345
735.133	106.466
735.262	104.052
735.390	105.216
735.518	103.741
735.646	102.810
735.774	105.741
735.902	105.259
736.030	103.931
736.158	104.198
736.287	104.103
736.415	103.724
736.543	105.879
736.671	106.629
736.799	105.293
736.927	103.569
737.055	105.371
737.183	106.716
737.312	104.914
737.440	108.009
737.568	106.526
737.696	105.155
737.824	102.966
737.952	102.095
738.080	105.198
738.208	109.845
738.337	103.095
738.465	105.224
738.593	108.457
738.721	101.474
738.849	102.466
738.977	102.612
739.105	103.603
739.233	101.293
739.362	103.302
739.490	108.664
739.618	104.422
739.746	105.629
739.874	104.129
740.002	104.983
740.130	103.776
740.258	105.922
740.387	105.552
740.515	104.155
740.643	106.509
740.771	103.974
740.899	101.655
741.027	105.078
741.155	103.638
741.283	103.422
741.412	113.621
741.540	106.328
741.668	104.629
741.796	108.897
741.924	102.784
742.052	103.793
742.180	105.216
742.308	101.612
742.437	102.690
742.565	106.345
742.693	107.345
742.821	102.853
742.949	105.233
743.077	105.509
743.205	105.164
743.333	104.905
743.462	106.526
743.590	105.940
743.718	103.397
743.846	103.052
743.974	103.405
744.102	101.362
744.230	108.819
744.358	121.414
744.487	125.500
744.615	119.474
744.743	106.914
744.871	105.638
744.999	104.457
745.127	104.974
745.255	103.922
745.383	103.310
745.512	103.888
745.640	105.353
745.768	114.328
745.896	113.560
746.024	113.224
746.152	107.216
746.280	106.828
746.408	105.716
746.537	100.897
746.665	103.793
746.793	106.948
746.921	104.819
747.049	103.397
747.177	104.578
747.305	104.345
747.433	105.888
747.562	107.052
747.690	105.379
747.818	104.474
747.946	107.000
748.074	105.276
748.202	105.595
748.330	103.181
748.458	105.009
748.587	105.431
748.715	104.871
748.843	104.716
748.971	103.681
749.099	106.207
749.227	105.690
749.355	105.845
749.483	106.043
749.612	107.819
749.740	103.828
749.868	103.500
749.996	103.534
750.124	101.905
750.252	104.879
750.380	104.138
750.508	103.543
750.637	104.853
750.765	105.103
750.893	105.664
751.021	102.957
751.149	103.888
751.277	104.836
751.405	104.526
751.533	105.267
751.662	106.836
751.790	103.759
751.918	104.405
752.046	103.750
752.174	102.552
752.302	106.879
752.430	103.336
752.558	102.690
752.687	101.733
752.815	102.250
752.943	102.147
753.071	103.517
753.199	101.293
753.327	102.491
753.455	104.845
753.583	103.440
753.712	104.793
753.840	105.017
753.968	102.500
754.096	104.759
754.224	103.466
754.352	105.974
754.480	103.759
754.608	105.293
754.737	103.862
754.865	106.259
754.993	107.931
755.121	107.431
755.249	104.664
755.377	103.888
755.505	105.741
755.633	105.026
755.762	105.569
755.890	104.224
756.018	102.776
756.146	101.155
756.274	103.164
756.402	104.655
756.530	104.000
756.658	108.914
756.787	107.017
756.915	101.879
757.043	102.112
757.171	103.310
757.299	104.164
757.427	101.733
757.555	102.112
757.683	102.621
757.812	104.276
757.940	104.216
758.068	102.181
758.196	105.224
758.324	106.483
758.452	106.233
758.580	102.672
758.708	103.414
758.837	103.138
758.965	103.922
759.093	103.414
759.221	104.940
759.349	112.569
759.477	105.172
759.605	102.164
759.733	104.302
759.862	103.603
759.990	102.000
760.118	103.190
760.246	107.810
760.374	104.716
760.502	104.112
760.630	103.983
760.758	106.121
760.887	102.526
761.015	103.716
761.143	105.276
761.271	105.466
761.399	103.138
761.527	105.052
761.655	104.569
761.783	106.828
761.912	106.741
762.040	104.552
762.168	109.241
762.296	106.371
762.424	107.603
762.552	103.888
762.680	102.966
762.808	103.931
762.937	103.190
763.065	107.612
763.193	104.716
763.321	104.078
763.449	102.190
763.577	103.172
763.705	102.664
763.833	103.440
763.962	103.328
764.090	105.966
764.218	106.819
764.346	103.026
764.474	106.362
764.602	105.034
764.730	103.259
764.858	104.569
764.987	106.267
765.115	103.466
765.243	103.491
765.371	104.526
765.499	103.293
765.627	104.172
765.755	103.069
765.883	113.009
766.012	102.034
766.140	102.086
766.268	102.526
766.396	103.466
766.524	104.078
766.652	102.828
766.780	101.828
766.908	102.431
767.037	104.733
767.165	105.155
767.293	106.690
767.421	105.371
767.549	104.845
767.677	104.052
767.805	103.681
767.933	103.853
768.062	104.414
768.190	104.276
768.318	105.026
768.446	103.172
768.574	106.095
768.702	106.810
768.830	105.052
768.958	104.155
769.087	103.595
769.215	103.776
769.343	103.690
769.471	102.569
769.599	102.672
769.727	102.845
769.855	106.095
769.983	106.655
770.112	106.664
770.240	103.974
770.368	102.793
770.496	102.362
770.624	103.422
770.752	104.940
770.880	110.078
771.008	106.259
771.137	104.129
771.265	102.388
771.393	102.784
771.521	103.716
771.649	102.569
771.777	104.888
771.905	111.647
772.033	107.155
772.162	104.983
772.290	103.853
772.418	102.457
772.546	102.397
772.674	105.043
772.802	104.112
772.930	106.905
773.058	105.112
773.187	105.500
773.315	102.974
773.443	102.362
773.571	103.336
773.699	103.767
773.827	101.397
773.955	103.198
774.083	102.474
774.212	103.784
774.340	102.586
774.468	103.638
774.596	101.147
774.724	100.879
774.852	102.759
774.980	104.819
775.108	105.121
775.237	102.491
775.365	102.750
775.493	106.095
775.621	104.026
775.749	104.129
775.877	102.716
776.005	103.681
776.133	102.888
776.262	105.991
776.390	102.845
776.518	102.690
776.646	104.776
776.774	105.603
776.902	104.828
777.030	104.155
777.158	103.198
777.287	102.405
777.415	102.466
777.543	102.517
777.671	104.784
777.799	105.224
777.927	104.000
778.055	102.638
778.183	103.552
778.312	110.224
778.440	105.862
778.568	107.362
778.696	104.379
778.824	105.595
778.952	104.621
779.080	103.966
779.208	103.267
779.337	103.129
779.465	101.741
779.593	102.621
779.721	103.509
779.849	103.966
779.977	104.284
780.105	105.491
780.233	104.129
780.362	101.103
780.490	102.086
780.618	103.405
780.746	104.328
780.874	105.681
781.002	103.397
781.130	101.560
781.258	105.362
781.387	102.517
781.515	102.103
781.643	102.862
781.771	102.121
781.899	101.905
782.027	101.405
782.155	103.586
782.283	101.362
782.412	101.612
782.540	102.017
782.668	104.767
782.796	103.879
782.924	102.466
783.052	103.345
783.180	103.181
783.308	102.440
783.437	111.638
783.565	105.586
783.693	105.897
783.821	105.853
783.949	107.491
784.077	105.716
784.205	107.974
784.333	103.810
784.462	103.879
784.590	102.879
784.718	102.233
784.846	102.284
784.974	105.491
785.102	106.052
785.230	103.060
785.358	103.103
785.487	103.009
785.615	102.897
785.743	103.405
785.871	102.509
785.999	103.914
786.127	104.034
786.255	102.974
786.383	102.000
786.512	102.621
786.640	105.500
786.768	105.810
786.896	103.595
787.024	103.966
787.152	108.043
787.280	104.819
787.408	107.379
787.537	103.293
787.665	104.017
787.793	103.793
787.921	103.983
788.049	105.603
788.177	109.655
788.305	105.060
788.433	105.259
788.562	103.983
788.690	103.716
788.818	104.405
788.946	103.276
789.074	102.448
789.202	106.052
789.330	103.914
789.458	105.379
789.587	104.845
789.715	102.448
789.843	102.422
789.971	103.017
790.099	104.172
790.227	103.647
790.355	102.397
790.483	106.397
790.612	103.121
790.740	104.371
790.868	102.345
790.996	103.129
791.124	102.422
791.252	101.819
791.380	108.491
791.508	102.888
791.637	104.578
791.765	103.181
791.893	103.526
792.021	102.060
792.149	103.302
792.277	103.586
792.405	104.948
792.533	103.793
792.662	103.983
792.790	104.474
792.918	106.371
793.046	105.147
793.174	103.534
793.302	103.371
793.430	103.672
793.558	104.336
793.687	103.491
793.815	104.793
793.943	103.491
794.071	103.526
794.199	103.983
794.327	104.164
794.455	104.371
794.583	105.879
794.712	102.664
794.840	101.491
794.968	103.259
795.096	105.836
795.224	108.836
795.352	103.586
795.480	103.345
795.608	102.560
795.737	100.457
795.865	101.129
795.993	103.509
796.121	102.922
796.249	104.560
796.377	105.276
796.505	104.336
796.633	104.931
796.762	104.543
796.890	102.190
797.018	101.086
797.146	101.543
797.274	103.138
797.402	103.552
797.530	103.647
797.658	103.586
797.787	104.750
797.915	105.241
798.043	105.940
798.171	102.405
798.299	103.560
798.427	104.103
798.555	104.491
798.683	103.457
798.812	102.871
798.940	104.069
799.068	103.879
799.196	105.181
799.324	102.448
799.452	104.802
799.580	103.103
799.708	102.060
799.837	102.733
799.965	104.224
800.093	106.276
800.221	103.466
800.349	103.483
800.477	104.853
800.605	104.164
800.733	105.759
800.862	104.026
800.990	103.328
801.118	103.043
801.246	104.302
801.374	111.741
801.502	106.000
801.630	105.698
801.758	103.552
801.887	102.267
802.015	102.000
802.143	101.828
802.271	103.379
802.399	102.397
802.527	102.767
802.655	104.345
802.783	106.009
802.912	103.595
803.040	101.931
803.168	102.595
803.296	105.431
803.424	104.138
803.552	101.948
803.680	101.681
803.808	104.560
803.937	104.681
804.065	103.147
804.193	104.138
804.321	104.767
804.449	103.172
804.577	101.112
804.705	104.491
804.833	103.862
804.962	103.802
805.090	103.353
805.218	105.897
805.346	104.405
805.474	104.664
805.602	102.267
805.730	104.328
805.858	105.603
805.987	101.897
806.115	104.069
806.243	102.793
806.371	103.078
806.499	113.491
806.627	106.276
806.755	105.000
806.883	107.155
807.012	104.405
807.140	101.629
807.268	102.198
807.396	103.147
807.524	103.267
807.652	104.543
807.780	102.897
807.908	103.422
808.037	102.241
808.165	103.388
808.293	102.440
808.421	101.836
808.549	106.276
808.677	107.034
808.805	105.509
808.933	102.819
809.062	103.517
809.190	104.017
809.318	103.009
809.446	103.276
809.574	104.741
809.702	104.457
809.830	104.871
809.958	104.060
810.087	103.983
810.215	102.155
810.343	102.914
810.471	105.750
810.599	106.138
810.727	103.207
810.855	104.388
810.983	103.267
811.112	104.310
811.240	103.362
811.368	104.448
811.496	105.147
811.624	102.767
811.752	102.129
811.880	103.414
812.008	103.362
812.137	103.388
812.265	104.698
812.393	104.759
812.521	105.207
812.649	106.000
812.777	103.733
812.905	103.052
813.033	102.802
813.162	103.621
813.290	105.750
813.418	107.483
813.546	104.103
813.674	102.250
813.802	103.828
813.930	105.681
814.058	107.681
814.187	112.621
814.315	109.828
814.443	105.121
814.571	102.138
814.699	105.009
814.827	102.698
814.955	103.069
815.083	104.595
815.212	104.095
815.340	102.491
815.468	102.095
815.596	103.405
815.724	103.586
815.852	104.879
815.980	104.569
816.108	102.345
816.237	101.000
816.365	102.397
816.493	102.767
816.621	103.388
816.749	105.491
816.877	103.190
817.005	103.164
817.133	103.690
817.262	103.164
817.390	101.940
817.518	101.302
817.646	101.905
817.774	101.922
817.902	101.181
818.030	101.448
818.158	104.638
818.287	103.026
818.415	101.629
818.543	103.328
818.671	101.733
818.799	101.776
818.927	100.233
819.055	102.784
819.183	104.397
819.312	104.509
819.440	103.784
819.568	103.474
819.696	103.198
819.824	102.845
819.952	101.922
820.080	102.629
820.208	102.819
820.337	101.578
820.465	102.414
820.593	102.155
820.721	105.060
820.849	104.552
820.977	105.879
821.105	103.784
821.233	101.362
821.362	101.569
821.490	101.060
821.618	103.569
821.746	102.750
821.874	101.405
822.002	102.259
822.130	101.224
822.258	102.836
822.387	102.414
822.515	103.724
822.643	102.853
822.771	103.388
822.899	100.948
823.027	101.379
823.155	103.328
823.283	103.810
823.412	102.198
823.540	102.121
823.668	100.129
823.796	101.621
823.924	103.190
824.052	101.957
824.180	102.052
824.308	103.759
824.437	101.509
824.565	101.190
824.693	102.147
824.821	102.655
824.949	103.509
825.077	104.759
825.205	102.733
825.333	101.569
825.462	104.353
825.590	104.448
825.718	101.793
825.846	101.276
825.974	105.793
826.102	104.121
826.230	103.026
826.358	102.353
826.487	102.672
826.615	101.483
826.743	101.474
826.871	102.664
826.999	102.853
827.127	103.250
827.255	103.302
827.383	102.741
827.512	103.336
827.640	104.448
827.768	101.000
827.896	101.716
828.024	102.362
828.152	101.991
828.280	101.586
828.408	103.690
828.537	105.026
828.665	103.060
828.793	103.655
828.921	108.569
829.049	103.862
829.177	103.095
829.305	104.940
829.433	102.681
829.562	103.569
829.690	105.026
829.818	101.000
829.946	102.647
830.074	102.655
830.202	102.707
830.330	103.466
830.458	102.414
830.587	101.655
830.715	102.509
830.843	101.543
830.971	102.414
831.099	102.629
831.227	100.862
831.355	104.802
831.483	103.224
831.612	102.647
831.740	99.724
831.868	103.017
831.996	103.207
832.124	101.552
832.252	102.957
832.380	102.922
832.508	104.328
832.637	103.431
832.765	103.638
832.893	102.802
833.021	102.948
833.149	105.233
833.277	104.026
833.405	102.422
833.533	101.819
833.662	104.000
833.790	103.664
833.918	108.172
834.046	103.043
834.174	103.922
834.302	103.595
834.430	102.250
834.558	104.198
834.687	103.897
834.815	102.414
834.943	102.707
835.071	103.897
835.199	105.095
835.327	102.914
835.455	105.397
835.583	104.819
835.712	104.741
835.840	102.224
835.968	102.603
836.096	103.422
836.224	102.147
836.352	103.707
836.480	101.586
836.608	103.353
836.737	103.052
836.865	102.940
836.993	103.836
837.121	104.017
837.249	103.431
837.377	102.603
837.505	104.216
837.633	102.672
837.762	102.819
837.890	101.603
838.018	102.828
838.146	103.284
838.274	106.922
838.402	109.793
838.530	104.621
838.658	101.000
838.787	103.793
838.915	103.741
839.043	103.448
839.171	104.974
839.299	102.940
839.427	101.750
839.555	101.026
839.683	101.560
839.812	105.017
839.940	105.948
840.068	103.940
840.196	104.621
840.324	103.845
840.452	105.560
840.580	103.069
840.708	103.922
840.837	105.017
840.965	102.362
841.093	102.431
841.221	102.897
841.349	104.862
841.477	105.690
841.605	100.448
841.733	101.034
841.862	102.034
841.990	102.672
842.118	104.069
842.246	104.224
842.374	104.147
842.502	107.431
842.630	102.052
842.758	102.819
842.887	103.267
843.015	103.284
843.143	103.741
843.271	103.345
843.399	104.129
843.527	106.672
843.655	103.974
843.783	103.172
843.912	103.078
844.040	101.647
844.168	103.750
844.296	103.517
844.424	101.672
844.552	102.310
844.680	102.767
844.808	102.707
844.937	101.862
845.065	103.147
845.193	102.586
845.321	103.828
845.449	103.733
845.577	105.440
845.705	105.509
845.833	102.828
845.962	102.724
846.090	103.707
846.218	104.776
846.346	102.948
846.474	102.595
846.602	103.078
846.730	103.362
846.858	103.991
846.987	101.681
847.115	101.828
847.243	103.698
847.371	105.147
847.499	105.414
847.627	102.853
847.755	101.000
847.883	103.310
848.012	101.655
848.140	102.138
848.268	101.371
848.396	105.345
848.524	103.112
848.652	103.103
848.780	108.888
848.908	102.052
849.037	104.681
849.165	105.836
849.293	105.267
849.421	107.034
849.549	103.836
849.677	100.259
849.805	103.034
849.933	103.690
850.062	104.034
850.190	102.647
850.318	102.776
850.446	103.138
850.574	101.603
850.702	103.328
850.830	102.009
850.958	101.483
851.087	101.190
851.215	103.103
851.343	103.750
851.471	102.853
851.599	102.060
851.727	103.345
851.855	104.190
851.983	105.000
852.112	102.517
852.240	102.759
852.368	102.302
852.496	105.655
852.624	103.716
852.752	104.741
852.880	107.198
853.008	107.388
853.137	102.983
853.265	104.957
853.393	107.612
853.521	104.371
853.649	104.405
853.777	109.491
853.905	107.103
854.033	102.664
854.162	101.759
854.290	102.267
854.418	102.052
854.546	107.957
854.674	108.388
854.802	106.879
854.930	104.207
855.058	103.474
855.187	104.164
855.315	101.647
855.443	101.897
855.571	104.138
855.699	102.888
855.827	102.569
855.955	100.276
856.083	101.948
856.212	102.983
856.340	103.741
856.468	102.353
856.596	103.552
856.724	103.422
856.852	103.431
856.980	103.750
857.108	103.483
857.237	103.578
857.365	103.690
857.493	104.233
857.621	104.052
857.749	103.759
857.877	100.793
858.005	102.319
858.133	101.948
858.262	103.690
858.390	102.509
858.518	102.664
858.646	102.948
858.774	104.328
858.902	104.405
859.030	104.759
859.158	103.224
859.287	102.879
859.415	102.198
859.543	104.086
859.671	103.940
859.799	102.974
859.927	104.310
860.055	107.845
860.183	102.741
860.312	102.190
860.440	101.621
860.568	103.500
860.696	102.474
860.824	104.078
860.952	103.224
861.080	103.569
861.208	104.966
861.337	103.095
861.465	102.164
861.593	107.095
861.721	102.026
861.849	103.147
861.977	103.517
862.105	101.983
862.233	102.474
862.362	102.276
862.490	103.905
862.618	102.750
862.746	102.112
862.874	105.233
863.002	105.491
863.130	105.974
863.258	102.353
863.387	103.172
863.515	104.129
863.643	104.672
863.771	103.526
863.899	104.397
864.027	105.267
864.155	104.414
864.283	104.328
864.412	101.569
864.540	100.578
864.668	104.293
864.796	105.724
864.924	103.422
865.052	104.276
865.180	102.466
865.308	103.940
865.437	103.181
865.565	102.241
865.693	103.319
865.821	104.181
865.949	105.319
866.077	103.310
866.205	103.379
866.333	102.974
866.462	104.664
866.590	105.267
866.718	104.414
866.846	102.457
866.974	102.853
867.102	102.759
867.230	105.086
867.358	103.578
867.487	104.216
867.615	104.655
867.743	108.560
867.871	104.457
867.999	104.207
868.127	102.319
868.255	102.543
868.383	104.190
868.512	104.293
868.640	105.767
868.768	104.647
868.896	103.534
869.024	103.629
869.152	105.155
869.280	102.457
869.408	102.664
869.537	103.905
869.665	103.716
869.793	104.724
869.921	103.034
870.049	103.767
870.177	103.724
870.305	104.733
870.433	104.224
870.562	104.991
870.690	102.560
870.818	103.397
870.946	107.147
871.074	104.586
871.202	101.974
871.330	103.690
871.458	103.948
871.587	102.552
871.715	104.940
871.843	103.448
871.971	104.543
872.099	103.224
872.227	103.957
872.355	102.810
872.483	100.629
872.612	103.534
872.740	106.474
872.868	104.897
872.996	102.224
873.124	101.897
873.252	102.707
873.380	103.017
873.508	102.517
873.637	104.043
873.765	105.974
873.893	106.603
874.021	107.095
874.149	106.086
874.277	105.345
874.405	107.155
874.533	102.741
874.662	103.353
874.790	103.810
874.918	103.095
875.046	101.431
875.174	101.474
875.302	103.267
875.430	101.991
875.558	102.491
875.687	102.595
875.815	113.336
875.943	103.991
876.071	105.810
876.199	104.009
876.327	104.784
876.455	102.716
876.583	101.931
876.712	104.069
876.840	105.698
876.968	105.983
877.096	105.431
877.224	105.103
877.352	103.707
877.480	104.388
877.608	105.724
877.737	106.112
877.865	104.353
877.993	103.164
878.121	103.138
878.249	101.371
878.377	103.052
878.505	105.931
878.633	104.397
878.762	105.336
878.890	105.733
879.018	102.716
879.146	102.810
879.274	103.121
879.402	103.862
879.530	104.138
879.658	102.664
879.787	104.517
879.915	105.293
880.043	102.336
880.171	102.379
880.299	104.000
880.427	102.957
880.555	103.371
880.683	103.793
880.812	104.397
880.940	103.198
881.068	105.293
881.196	106.190
881.324	105.164
881.452	104.284
881.580	104.310
881.708	106.629
881.837	105.853
881.965	105.155
882.093	105.181
882.221	104.957
882.349	106.483
882.477	107.802
882.605	105.603
882.733	104.759
882.862	104.250
882.990	106.250
883.118	104.112
883.246	103.267
883.374	104.276
883.502	104.845
883.630	102.595
883.758	104.078
883.887	104.371
884.015	104.138
884.143	106.586
884.271	107.879
884.399	104.905
884.527	101.940
884.655	101.767
884.783	102.517
884.912	104.621
885.040	107.802
885.168	104.509
885.296	103.362
885.424	102.371
885.552	104.155
885.680	105.052
885.808	104.862
885.937	106.879
886.065	104.207
886.193	103.483
886.321	106.940
886.449	107.129
886.577	103.741
886.705	100.172
886.833	100.922
886.962	105.328
887.090	107.060
887.218	105.259
887.346	108.250
887.474	106.328
887.602	105.664
887.730	105.534
887.858	107.750
887.987	107.595
888.115	105.405
888.243	105.310
888.371	110.345
888.499	111.060
888.627	109.103
888.755	105.190
888.883	105.543
889.012	102.940
889.140	105.259
889.268	104.017
889.396	103.767
889.524	103.310
889.652	105.086
889.780	103.578
889.908	106.681
890.037	105.345
890.165	105.405
890.293	103.009
890.421	104.603
890.549	103.302
890.677	105.172
890.805	104.966
890.933	104.474
891.062	105.095
891.190	105.302
891.318	103.181
891.446	103.017
891.574	101.983
891.702	105.129
891.830	105.698
891.958	110.026
892.087	107.897
892.215	106.422
892.343	105.086
892.471	104.888
892.599	112.397
892.727	107.560
892.855	105.966
892.983	104.422
893.112	105.129
893.240	110.276
893.368	109.086
893.496	103.922
893.624	104.095
893.752	104.914
893.880	105.914
894.008	106.103
894.137	112.207
894.265	105.319
894.393	107.172
894.521	106.353
894.649	105.845
894.777	105.293
894.905	105.319
895.033	104.509
895.162	105.966
895.290	103.103
895.418	103.931
895.546	105.448
895.674	105.707
895.802	105.655
895.930	105.112
896.058	106.267
896.187	104.276
896.315	108.509
896.443	104.802
896.571	105.155
896.699	104.147
896.827	105.853
896.955	107.345
897.083	113.862
897.212	107.112
897.340	109.526
897.468	107.086
897.596	104.940
897.724	107.017
897.852	107.603
897.980	105.353
898.108	104.647
898.237	104.638
898.365	104.500
898.493	103.948
898.621	107.250
898.749	108.888
898.877	105.259
899.005	108.517
899.133	107.534
899.262	105.595
899.390	105.991
899.518	105.776
899.646	106.422
899.774	104.517
899.902	103.759
900.030	106.828
900.158	105.621
900.287	106.138
900.415	108.621
900.543	107.405
900.671	108.948
900.799	105.207
900.927	103.716
901.055	105.474
901.183	106.664
901.312	106.086
901.440	104.319
901.568	105.793
901.696	105.819
901.824	109.569
901.952	107.060
902.080	107.948
902.208	105.466
902.337	107.733
902.465	106.698
902.593	106.638
902.721	106.836
902.849	109.276
902.977	114.552
903.105	115.810
903.233	113.845
903.362	109.784
903.490	109.086
903.618	110.207
903.746	106.853
903.874	109.078
904.002	108.500
904.130	105.207
904.258	106.621
904.387	104.828
904.515	110.164
904.643	109.802
904.771	107.293
904.899	107.241
905.027	106.138
905.155	111.509
905.283	108.560
905.412	108.672
905.540	109.190
905.668	106.060
905.796	106.216
905.924	108.284
906.052	107.966
906.180	108.698
906.308	111.241
906.437	109.164
906.565	111.474
906.693	113.922
906.821	113.362
906.949	108.655
907.077	117.621
907.205	111.259
907.333	107.457
907.462	107.034
907.590	108.000
907.718	109.845
907.846	112.828
907.974	108.060
908.102	106.379
908.230	105.457
908.358	106.793
908.487	107.612
908.615	110.371
908.743	107.207
908.871	109.267
908.999	108.603
909.127	108.138
909.255	111.129
909.383	108.638
909.512	111.853
909.640	112.164
909.768	112.129
909.896	111.888
910.024	115.647
910.152	111.802
910.280	111.371
910.408	108.276
910.537	109.259
910.665	113.371
910.793	115.905
910.921	112.888
911.049	114.595
911.177	112.164
911.305	111.103
911.433	111.853
911.562	111.267
911.690	111.302
911.818	110.181
911.946	114.802
912.074	114.802
912.202	110.060
912.330	110.621
912.458	110.991
912.587	108.828
912.715	112.707
912.843	113.431
912.971	118.474
913.099	118.828
913.227	113.509
913.355	116.103
913.483	113.112
913.612	116.595
913.740	113.603
913.868	111.276
