sample10_PS_at_750.00nm_cut_at_1008.00Y_01.dat
15.05.2023
11:07:37
cut middle at Y: 1008.00
top cursor: 1048 down cursor: 968 mean of: 80 lines , 2560 datapoints
wavelength(nm)	intensity[arb. units]
585.996	1044.275
586.124	1023.850
586.252	1009.612
586.380	997.875
586.508	1019.962
586.637	1016.612
586.765	1008.700
586.893	1028.912
587.021	1015.975
587.149	1037.263
587.277	1028.525
587.405	1028.650
587.533	1014.775
587.662	1049.812
587.790	1050.787
587.918	1042.050
588.046	1053.287
588.174	1040.612
588.302	1046.263
588.430	1041.500
588.558	1054.000
588.687	1047.312
588.815	1066.650
588.943	1054.225
589.071	1045.375
589.199	1066.888
589.327	1063.013
589.455	1036.375
589.583	1059.662
589.712	1064.388
589.840	1065.100
589.968	1052.662
590.096	1077.400
590.224	1064.013
590.352	1076.900
590.480	1066.100
590.608	1070.575
590.737	1055.900
590.865	1076.375
590.993	1069.812
591.121	1074.600
591.249	1086.588
591.377	1071.963
591.505	1066.287
591.633	1067.550
591.762	1073.900
591.890	1085.575
592.018	1080.338
592.146	1089.687
592.274	1097.838
592.402	1084.638
592.530	1089.963
592.658	1086.850
592.787	1095.750
592.915	1089.037
593.043	1087.525
593.171	1105.725
593.299	1116.400
593.427	1095.625
593.555	1097.225
593.683	1108.050
593.812	1107.912
593.940	1113.200
594.068	1114.362
594.196	1147.013
594.324	1117.750
594.452	1133.025
594.580	1140.713
594.708	1134.925
594.837	1133.800
594.965	1145.287
595.093	1144.325
595.221	1145.338
595.349	1168.888
595.477	1161.812
595.605	1146.838
595.733	1179.100
595.862	1170.775
595.990	1169.638
596.118	1186.250
596.246	1178.700
596.374	1196.075
596.502	1205.213
596.630	1196.062
596.758	1200.800
596.887	1202.187
597.015	1217.925
597.143	1186.237
597.271	1191.175
597.399	1212.138
597.527	1224.787
597.655	1208.487
597.783	1227.513
597.912	1217.250
598.040	1219.338
598.168	1214.562
598.296	1225.400
598.424	1225.250
598.552	1223.400
598.680	1215.937
598.808	1213.787
598.937	1243.213
599.065	1229.600
599.193	1228.575
599.321	1225.437
599.449	1241.912
599.577	1230.862
599.705	1222.200
599.833	1242.300
599.962	1232.112
600.090	1234.287
600.218	1231.763
600.346	1232.338
600.474	1250.487
600.602	1246.987
600.730	1248.062
600.858	1248.550
600.987	1251.075
601.115	1251.888
601.243	1247.700
601.371	1261.513
601.499	1255.888
601.627	1268.350
601.755	1277.500
601.883	1274.850
602.012	1273.937
602.140	1262.362
602.268	1302.662
602.396	1281.138
602.524	1297.225
602.652	1300.338
602.780	1293.687
602.908	1316.725
603.037	1321.237
603.165	1320.812
603.293	1327.475
603.421	1348.375
603.549	1336.650
603.677	1371.562
603.805	1340.213
603.933	1350.588
604.062	1354.112
604.190	1378.812
604.318	1362.112
604.446	1390.300
604.574	1400.838
604.702	1393.175
604.830	1400.187
604.958	1414.675
605.087	1423.975
605.215	1423.375
605.343	1428.975
605.471	1435.700
605.599	1449.062
605.727	1439.850
605.855	1462.088
605.983	1444.875
606.112	1465.125
606.240	1475.950
606.368	1477.950
606.496	1484.062
606.624	1461.775
606.752	1480.787
606.880	1494.000
607.008	1497.888
607.137	1508.138
607.265	1504.400
607.393	1524.287
607.521	1518.925
607.649	1518.937
607.777	1505.487
607.905	1521.975
608.033	1526.575
608.162	1540.375
608.290	1532.513
608.418	1533.437
608.546	1534.987
608.674	1564.612
608.802	1531.225
608.930	1552.487
609.058	1547.075
609.187	1547.412
609.315	1553.888
609.443	1556.237
609.571	1563.562
609.699	1567.737
609.827	1568.825
609.955	1554.050
610.083	1570.687
610.212	1575.950
610.340	1583.525
610.468	1568.500
610.596	1594.662
610.724	1575.763
610.852	1597.900
610.980	1587.513
611.108	1595.925
611.237	1593.450
611.365	1605.187
611.493	1592.838
611.621	1617.487
611.749	1624.350
611.877	1630.000
612.005	1608.763
612.133	1629.000
612.262	1610.100
612.390	1641.162
612.518	1638.000
612.646	1628.437
612.774	1643.625
612.902	1640.112
613.030	1662.912
613.158	1666.213
613.287	1698.287
613.415	1671.013
613.543	1676.175
613.671	1678.737
613.799	1678.088
613.927	1687.350
614.055	1704.575
614.183	1704.775
614.312	1697.150
614.440	1712.375
614.568	1720.250
614.696	1734.700
614.824	1720.425
614.952	1724.225
615.080	1749.737
615.208	1756.662
615.337	1756.850
615.465	1763.675
615.593	1774.463
615.721	1778.062
615.849	1790.787
615.977	1808.112
616.105	1792.075
616.233	1813.862
616.362	1811.388
616.490	1815.138
616.618	1824.362
616.746	1835.875
616.874	1839.775
617.002	1864.500
617.130	1871.625
617.258	1849.062
617.387	1859.713
617.515	1865.050
617.643	1874.075
617.771	1877.662
617.899	1889.287
618.027	1883.737
618.155	1907.812
618.283	1895.737
618.412	1906.625
618.540	1903.575
618.668	1925.400
618.796	1918.388
618.924	1919.650
619.052	1929.850
619.180	1928.150
619.308	1940.825
619.437	1943.850
619.565	1940.325
619.693	1943.213
619.821	1967.537
619.949	1933.162
620.077	1941.588
620.205	1957.175
620.333	1979.937
620.462	1968.425
620.590	1988.600
620.718	1978.800
620.846	1982.713
620.974	2041.725
621.102	1977.088
621.230	1995.375
621.358	2017.525
621.487	1999.325
621.615	1998.737
621.743	2026.775
621.871	2015.362
621.999	2015.987
622.127	2009.075
622.255	2018.862
622.383	2027.562
622.512	2033.963
622.640	2017.237
622.768	2035.550
622.896	2021.250
623.024	2023.300
623.152	2058.650
623.280	2020.175
623.408	2046.950
623.537	2047.513
623.665	2057.287
623.793	2069.050
623.921	2054.375
624.049	2061.137
624.177	2068.887
624.305	2068.900
624.433	2075.350
624.562	2073.238
624.690	2068.412
624.818	2095.562
624.946	2096.162
625.074	2089.363
625.202	2120.412
625.330	2105.113
625.458	2103.725
625.587	2087.350
625.715	2096.975
625.843	2103.162
625.971	2097.812
626.099	2118.412
626.227	2126.550
626.355	2111.175
626.483	2126.650
626.612	2116.387
626.740	2117.825
626.868	2141.412
626.996	2137.762
627.124	2123.400
627.252	2117.687
627.380	2146.187
627.508	2145.750
627.637	2142.900
627.765	2166.988
627.893	2174.775
628.021	2142.900
628.149	2184.450
628.277	2206.488
628.405	2206.162
628.533	2163.400
628.662	2173.012
628.790	2185.762
628.918	2186.812
629.046	2190.325
629.174	2181.062
629.302	2227.925
629.430	2217.625
629.558	2208.375
629.687	2230.762
629.815	2226.375
629.943	2224.025
630.071	2240.725
630.199	2242.550
630.327	2234.125
630.455	2237.125
630.583	2274.537
630.712	2257.975
630.840	2257.250
630.968	2289.463
631.096	2278.100
631.224	2271.713
631.352	2273.812
631.480	2275.912
631.608	2288.838
631.737	2298.988
631.865	2334.400
631.993	2291.200
632.121	2317.637
632.249	2311.075
632.377	2331.100
632.505	2328.450
632.633	2307.062
632.762	2325.187
632.890	2358.900
633.018	2334.187
633.146	2336.900
633.274	2329.400
633.402	2336.238
633.530	2328.575
633.658	2378.662
633.787	2325.150
633.915	2360.662
634.043	2354.162
634.171	2357.900
634.299	2349.812
634.427	2378.488
634.555	2365.963
634.683	2355.863
634.812	2351.500
634.940	2372.525
635.068	2346.537
635.196	2377.725
635.324	2374.700
635.452	2386.225
635.580	2348.887
635.708	2342.387
635.837	2375.225
635.965	2363.300
636.093	2357.037
636.221	2344.262
636.349	2380.225
636.477	2332.387
636.605	2387.150
636.733	2334.937
636.862	2321.325
636.990	2337.738
637.118	2351.488
637.246	2332.800
637.374	2336.863
637.502	2321.488
637.630	2337.975
637.758	2333.575
637.887	2323.100
638.015	2315.275
638.143	2331.838
638.271	2303.950
638.399	2319.875
638.527	2312.262
638.655	2319.387
638.783	2353.175
638.912	2306.300
639.040	2309.450
639.168	2313.637
639.296	2323.512
639.424	2362.700
639.552	2317.287
639.680	2347.912
639.808	2316.175
639.937	2291.238
640.065	2307.037
640.193	2336.213
640.321	2304.213
640.449	2307.687
640.577	2324.175
640.705	2283.162
640.833	2324.375
640.962	2306.562
641.090	2308.500
641.218	2297.963
641.346	2304.850
641.474	2281.250
641.602	2292.500
641.730	2298.050
641.858	2297.000
641.987	2303.325
642.115	2309.450
642.243	2306.550
642.371	2331.700
642.499	2291.950
642.627	2308.725
642.755	2326.200
642.883	2322.250
643.012	2311.975
643.140	2315.988
643.268	2305.713
643.396	2313.588
643.524	2334.912
643.652	2311.725
643.780	2311.950
643.908	2320.238
644.037	2331.750
644.165	2315.687
644.293	2328.412
644.421	2304.225
644.549	2341.150
644.677	2337.525
644.805	2324.762
644.933	2320.275
645.062	2324.713
645.190	2314.338
645.318	2312.475
645.446	2331.575
645.574	2341.300
645.702	2312.275
645.830	2381.400
645.958	2325.713
646.087	2366.475
646.215	2308.725
646.343	2375.488
646.471	2355.488
646.599	2351.187
646.727	2318.012
646.855	2347.863
646.983	2347.475
647.112	2335.812
647.240	2371.525
647.368	2305.175
647.496	2329.950
647.624	2307.700
647.752	2316.937
647.880	2327.825
648.008	2332.450
648.137	2313.925
648.265	2287.500
648.393	2318.200
648.521	2318.275
648.649	2306.825
648.777	2303.400
648.905	2303.800
649.033	2280.675
649.162	2292.338
649.290	2294.338
649.418	2273.275
649.546	2282.838
649.674	2286.012
649.802	2289.463
649.930	2293.325
650.058	2267.100
650.187	2282.650
650.315	2285.375
650.443	2265.950
650.571	2281.475
650.699	2275.588
650.827	2274.838
650.955	2252.525
651.083	2255.200
651.212	2242.375
651.340	2250.562
651.468	2254.238
651.596	2227.625
651.724	2230.650
651.852	2224.187
651.980	2199.387
652.108	2247.488
652.237	2193.887
652.365	2202.162
652.493	2199.475
652.621	2195.437
652.749	2211.162
652.877	2191.800
653.005	2198.000
653.133	2209.825
653.262	2184.738
653.390	2197.175
653.518	2189.625
653.646	2196.062
653.774	2204.625
653.902	2202.137
654.030	2182.287
654.158	2156.400
654.287	2173.300
654.415	2172.450
654.543	2164.037
654.671	2153.025
654.799	2145.187
654.927	2159.225
655.055	2140.325
655.183	2142.325
655.312	2132.062
655.440	2124.350
655.568	2138.387
655.696	2129.213
655.824	2134.975
655.952	2138.687
656.080	2124.600
656.208	2138.287
656.337	2102.850
656.465	2119.812
656.593	2124.500
656.721	2097.225
656.849	2111.162
656.977	2100.512
657.105	2096.525
657.233	2086.825
657.362	2086.400
657.490	2076.387
657.618	2086.450
657.746	2098.312
657.874	2076.725
658.002	2077.613
658.130	2063.200
658.258	2081.287
658.387	2074.975
658.515	2050.187
658.643	2062.363
658.771	2058.988
658.899	2064.738
659.027	2052.000
659.155	2070.000
659.283	2039.200
659.412	2030.150
659.540	2038.888
659.668	2055.975
659.796	2040.312
659.924	2052.075
660.052	2045.862
660.180	2039.162
660.308	2038.338
660.437	2014.162
660.565	2031.550
660.693	2019.600
660.821	2028.850
660.949	2026.138
661.077	2009.838
661.205	2006.325
661.333	1995.500
661.462	2024.338
661.590	2013.263
661.718	1988.287
661.846	1997.575
661.974	2005.612
662.102	1994.225
662.230	1982.675
662.358	1979.975
662.487	1992.987
662.615	1958.937
662.743	1985.588
662.871	1968.213
662.999	1957.225
663.127	1953.263
663.255	1966.987
663.383	1970.850
663.512	1963.300
663.640	1968.275
663.768	1964.713
663.896	1969.562
664.024	1946.237
664.152	1961.838
664.280	1960.400
664.408	1935.975
664.537	1953.475
664.665	1939.362
664.793	1920.987
664.921	1935.662
665.049	1931.075
665.177	1949.687
665.305	1929.375
665.433	1923.350
665.562	1925.763
665.690	1919.325
665.818	1925.312
665.946	1927.713
666.074	1913.737
666.202	1920.487
666.330	1913.025
666.458	1901.600
666.587	1895.775
666.715	1897.513
666.843	1922.500
666.971	1906.437
667.099	1897.375
667.227	1923.250
667.355	1881.612
667.483	1897.437
667.612	1916.737
667.740	1890.787
667.868	1917.025
667.996	1891.650
668.124	1890.600
668.252	1884.050
668.380	1865.737
668.508	1895.987
668.637	1881.662
668.765	1882.475
668.893	1891.588
669.021	1880.612
669.149	1879.338
669.277	1851.025
669.405	1866.575
669.533	1881.963
669.662	1882.213
669.790	1858.150
669.918	1861.537
670.046	1871.037
670.174	1852.700
670.302	1853.963
670.430	1835.500
670.558	1848.388
670.687	1837.025
670.815	1837.662
670.943	1827.838
671.071	1830.312
671.199	1846.437
671.327	1837.125
671.455	1824.812
671.583	1821.412
671.712	1829.412
671.840	1814.162
671.968	1818.950
672.096	1808.162
672.224	1808.150
672.352	1791.888
672.480	1788.037
672.608	1786.375
672.737	1807.338
672.865	1779.550
672.993	1782.800
673.121	1792.425
673.249	1774.050
673.377	1768.025
673.505	1772.275
673.633	1747.300
673.762	1750.787
673.890	1772.225
674.018	1758.650
674.146	1753.650
674.274	1758.075
674.402	1735.825
674.530	1751.275
674.658	1741.138
674.787	1732.350
674.915	1716.150
675.043	1744.638
675.171	1733.612
675.299	1726.450
675.427	1714.013
675.555	1729.437
675.683	1723.112
675.812	1698.862
675.940	1705.250
676.068	1704.713
676.196	1699.525
676.324	1698.400
676.452	1693.638
676.580	1674.075
676.708	1691.412
676.837	1708.600
676.965	1676.562
677.093	1692.725
677.221	1670.713
677.349	1658.763
677.477	1668.950
677.605	1647.950
677.733	1667.713
677.862	1658.950
677.990	1646.950
678.118	1636.912
678.246	1627.088
678.374	1616.187
678.502	1630.638
678.630	1612.925
678.758	1610.487
678.887	1614.175
679.015	1634.513
679.143	1598.537
679.271	1598.812
679.399	1612.750
679.527	1586.312
679.655	1590.737
679.783	1607.237
679.912	1597.275
680.040	1598.075
680.168	1595.400
680.296	1582.150
680.424	1584.963
680.552	1580.675
680.680	1592.662
680.808	1568.800
680.937	1572.562
681.065	1571.763
681.193	1558.075
681.321	1576.000
681.449	1563.912
681.577	1561.287
681.705	1542.675
681.833	1536.925
681.962	1544.150
682.090	1542.812
682.218	1535.737
682.346	1537.062
682.474	1547.187
682.602	1547.075
682.730	1536.513
682.858	1523.875
682.987	1533.713
683.115	1523.838
683.243	1528.838
683.371	1526.250
683.499	1506.662
683.627	1530.325
683.755	1497.525
683.883	1505.425
684.012	1506.437
684.140	1504.612
684.268	1495.263
684.396	1510.138
684.524	1507.900
684.652	1513.250
684.780	1513.362
684.908	1509.412
685.037	1489.500
685.165	1503.525
685.293	1503.487
685.421	1492.425
685.549	1491.350
685.677	1488.312
685.805	1489.388
685.933	1482.763
686.062	1472.162
686.190	1488.650
686.318	1484.775
686.446	1485.463
686.574	1472.437
686.702	1486.650
686.830	1485.950
686.958	1459.950
687.087	1475.537
687.215	1457.500
687.343	1460.125
687.471	1465.225
687.599	1443.375
687.727	1459.187
687.855	1466.175
687.983	1470.575
688.112	1471.875
688.240	1455.963
688.368	1459.263
688.496	1451.638
688.624	1459.100
688.752	1442.437
688.880	1453.362
689.008	1446.650
689.137	1432.162
689.265	1451.737
689.393	1431.687
689.521	1433.350
689.649	1425.175
689.777	1424.850
689.905	1432.037
690.033	1435.638
690.162	1426.162
690.290	1408.237
690.418	1413.862
690.546	1436.162
690.674	1445.213
690.802	1402.338
690.930	1410.200
691.058	1409.800
691.187	1390.812
691.315	1407.150
691.443	1397.388
691.571	1392.338
691.699	1391.388
691.827	1406.287
691.955	1399.662
692.083	1383.725
692.212	1384.425
692.340	1393.437
692.468	1383.487
692.596	1376.937
692.724	1387.162
692.852	1376.763
692.980	1386.300
693.108	1374.075
693.237	1360.850
693.365	1363.062
693.493	1346.850
693.621	1340.425
693.749	1352.013
693.877	1341.425
694.005	1332.175
694.133	1344.675
694.262	1324.412
694.390	1328.250
694.518	1310.088
694.646	1320.037
694.774	1327.562
694.902	1318.775
695.030	1334.975
695.158	1303.537
695.287	1304.275
695.415	1295.537
695.543	1297.425
695.671	1291.963
695.799	1287.687
695.927	1286.213
696.055	1281.525
696.183	1306.912
696.312	1286.350
696.440	1278.838
696.568	1276.800
696.696	1268.412
696.824	1262.088
696.952	1262.088
697.080	1266.562
697.208	1276.013
697.337	1240.588
697.465	1246.112
697.593	1248.200
697.721	1240.412
697.849	1244.463
697.977	1234.612
698.105	1250.437
698.233	1237.388
698.362	1231.275
698.490	1216.800
698.618	1229.400
698.746	1224.875
698.874	1226.975
699.002	1219.800
699.130	1215.925
699.258	1210.825
699.387	1194.487
699.515	1205.713
699.643	1209.513
699.771	1208.862
699.899	1192.175
700.027	1195.250
700.155	1189.287
700.283	1195.300
700.412	1188.588
700.540	1181.575
700.668	1169.575
700.796	1182.075
700.924	1171.850
701.052	1168.662
701.180	1169.800
701.308	1163.412
701.437	1155.300
701.565	1154.062
701.693	1148.950
701.821	1163.575
701.949	1166.937
702.077	1136.100
702.205	1145.650
702.333	1141.100
702.462	1136.037
702.590	1127.862
702.718	1139.213
702.846	1120.600
702.974	1133.025
703.102	1116.900
703.230	1112.500
703.358	1107.750
703.487	1120.900
703.615	1119.187
703.743	1102.300
703.871	1103.600
703.999	1099.763
704.127	1090.875
704.255	1080.487
704.383	1094.312
704.512	1072.450
704.640	1075.650
704.768	1064.562
704.896	1070.112
705.024	1067.513
705.152	1065.700
705.280	1069.250
705.408	1062.338
705.537	1056.713
705.665	1059.588
705.793	1043.037
705.921	1034.975
706.049	1050.575
706.177	1038.300
706.305	1031.425
706.433	1031.375
706.562	1025.412
706.690	1024.450
706.818	1012.937
706.946	1015.462
707.074	1012.400
707.202	1002.288
707.330	1010.650
707.458	1008.025
707.587	992.875
707.715	996.850
707.843	996.100
707.971	992.025
708.099	993.675
708.227	982.888
708.355	985.125
708.483	984.475
708.612	975.575
708.740	970.812
708.868	968.000
708.996	971.575
709.124	975.775
709.252	970.475
709.380	957.562
709.508	947.562
709.637	958.663
709.765	951.375
709.893	951.337
710.021	952.325
710.149	938.937
710.277	955.187
710.405	936.362
710.533	931.725
710.662	928.325
710.790	941.200
710.918	917.013
711.046	912.450
711.174	920.700
711.302	915.425
711.430	917.962
711.558	923.425
711.687	906.575
711.815	909.437
711.943	906.513
712.071	908.312
712.199	900.337
712.327	893.112
712.455	885.350
712.583	894.437
712.712	910.487
712.840	898.075
712.968	886.112
713.096	876.125
713.224	886.325
713.352	874.413
713.480	871.275
713.608	869.775
713.737	864.625
713.865	862.937
713.993	851.362
714.121	845.737
714.249	855.562
714.377	849.100
714.505	854.538
714.633	844.875
714.762	840.200
714.890	842.413
715.018	843.475
715.146	827.337
715.274	833.700
715.402	839.100
715.530	842.575
715.658	827.550
715.787	830.312
715.915	831.337
716.043	822.212
716.171	824.362
716.299	840.450
716.427	821.250
716.555	812.375
716.683	808.850
716.812	808.112
716.940	809.538
717.068	793.237
717.196	795.163
717.324	802.388
717.452	795.550
717.580	792.500
717.708	790.763
717.837	792.837
717.965	786.950
718.093	784.763
718.221	781.263
718.349	768.325
718.477	773.825
718.605	775.462
718.733	780.025
718.862	767.212
718.990	760.163
719.118	768.437
719.246	763.837
719.374	759.725
719.502	765.950
719.630	766.300
719.758	755.812
719.887	753.000
720.015	757.138
720.143	742.362
720.271	748.513
720.399	743.937
720.527	739.700
720.655	736.350
720.783	736.663
720.912	742.550
721.040	746.575
721.168	739.675
721.296	727.625
721.424	733.250
721.552	723.200
721.680	713.538
721.808	727.475
721.937	722.800
722.065	718.337
722.193	708.237
722.321	707.187
722.449	713.975
722.577	710.487
722.705	694.375
722.833	697.663
722.962	705.013
723.090	690.663
723.218	689.250
723.346	696.062
723.474	693.750
723.602	690.775
723.730	685.525
723.858	687.812
723.987	685.350
724.115	672.300
724.243	674.375
724.371	674.538
724.499	678.712
724.627	677.850
724.755	663.312
724.883	673.513
725.012	674.100
725.140	665.325
725.268	653.625
725.396	657.300
725.524	646.775
725.652	656.062
725.780	645.075
725.908	643.225
726.037	645.687
726.165	649.150
726.293	630.013
726.421	633.775
726.549	636.837
726.677	629.625
726.805	631.350
726.933	635.125
727.062	629.300
727.190	620.900
727.318	617.862
727.446	622.337
727.574	621.987
727.702	615.525
727.830	608.638
727.958	610.513
728.087	609.375
728.215	607.288
728.343	598.937
728.471	599.837
728.599	596.525
728.727	605.925
728.855	601.225
728.983	591.850
729.112	583.725
729.240	580.050
729.368	585.250
729.496	581.375
729.624	588.300
729.752	578.900
729.880	583.625
730.008	577.050
730.137	564.263
730.265	568.525
730.393	570.837
730.521	559.712
730.649	563.638
730.777	565.337
730.905	558.663
731.033	560.750
731.162	566.075
731.290	560.062
731.418	556.462
731.546	581.538
731.674	550.525
731.802	542.800
731.930	550.837
732.058	542.875
732.187	538.325
732.315	539.087
732.443	542.087
732.571	534.612
732.699	533.775
732.827	535.437
732.955	530.550
733.083	519.775
733.212	523.487
733.340	533.013
733.468	525.413
733.596	530.687
733.724	525.962
733.852	519.625
733.980	511.675
734.108	511.538
734.237	522.650
734.365	512.625
734.493	513.800
734.621	505.312
734.749	514.525
734.877	510.413
735.005	501.575
735.133	502.538
735.262	504.200
735.390	496.788
735.518	494.725
735.646	496.975
735.774	490.600
735.902	494.625
736.030	491.937
736.158	490.712
736.287	491.187
736.415	493.413
736.543	482.087
736.671	479.387
736.799	480.038
736.927	493.225
737.055	478.462
737.183	474.675
737.312	475.750
737.440	481.587
737.568	492.712
737.696	474.875
737.824	467.712
737.952	481.988
738.080	478.038
738.208	472.012
738.337	465.363
738.465	470.187
738.593	461.825
738.721	457.725
738.849	464.613
738.977	458.163
739.105	458.587
739.233	448.187
739.362	452.687
739.490	445.488
739.618	448.000
739.746	454.025
739.874	449.850
740.002	448.937
740.130	436.012
740.258	445.325
740.387	435.850
740.515	435.962
740.643	442.500
740.771	448.625
740.899	441.712
741.027	432.225
741.155	437.225
741.283	426.887
741.412	429.800
741.540	430.925
741.668	423.625
741.796	423.962
741.924	428.175
742.052	422.100
742.180	419.225
742.308	415.437
742.437	421.075
742.565	423.262
742.693	423.913
742.821	419.238
742.949	416.038
743.077	416.675
743.205	411.750
743.333	411.163
743.462	416.425
743.590	412.163
743.718	402.962
743.846	408.050
743.974	401.337
744.102	398.988
744.230	399.262
744.358	397.800
744.487	407.413
744.615	400.887
744.743	399.025
744.871	392.038
744.999	397.488
745.127	391.587
745.255	384.800
745.383	390.125
745.512	393.238
745.640	382.075
745.768	383.400
745.896	385.113
746.024	384.400
746.152	381.837
746.280	380.925
746.408	383.775
746.537	387.413
746.665	382.988
746.793	374.137
746.921	377.275
747.049	375.413
747.177	377.012
747.305	370.075
747.433	377.500
747.562	367.087
747.690	364.875
747.818	369.950
747.946	365.975
748.074	381.050
748.202	359.062
748.330	361.525
748.458	365.525
748.587	358.300
748.715	351.512
748.843	358.900
748.971	357.863
749.099	355.750
749.227	360.850
749.355	353.175
749.483	354.600
749.612	350.000
749.740	348.663
749.868	346.825
749.996	349.450
750.124	348.413
750.252	348.750
750.380	345.725
750.508	344.163
750.637	337.437
750.765	344.025
750.893	339.625
751.021	346.850
751.149	342.538
751.277	346.775
751.405	345.238
751.533	348.812
751.662	346.600
751.790	350.562
751.918	350.387
752.046	330.850
752.174	326.425
752.302	337.375
752.430	335.850
752.558	330.288
752.687	326.488
752.815	340.212
752.943	328.937
753.071	319.712
753.199	321.087
753.327	330.413
753.455	318.675
753.583	319.038
753.712	325.988
753.840	314.825
753.968	317.175
754.096	311.000
754.224	317.738
754.352	312.538
754.480	308.762
754.608	316.137
754.737	310.650
754.865	317.962
754.993	314.312
755.121	306.337
755.249	317.675
755.377	306.387
755.505	303.937
755.633	323.200
755.762	298.675
755.890	318.225
756.018	307.075
756.146	299.738
756.274	305.775
756.402	293.238
756.530	300.238
756.658	306.413
756.787	294.988
756.915	286.700
757.043	295.900
757.171	295.125
757.299	287.538
757.427	289.875
757.555	284.850
757.683	292.062
757.812	289.712
757.940	293.050
758.068	282.175
758.196	277.788
758.324	284.200
758.452	279.788
758.580	280.462
758.708	283.863
758.837	282.187
758.965	291.687
759.093	275.238
759.221	282.413
759.349	274.100
759.477	274.325
759.605	272.500
759.733	276.587
759.862	276.125
759.990	270.625
760.118	277.500
760.246	267.450
760.374	270.062
760.502	272.988
760.630	263.187
760.758	265.187
760.887	261.975
761.015	265.350
761.143	266.925
761.271	258.100
761.399	257.875
761.527	261.825
761.655	263.675
761.783	262.663
761.912	255.713
762.040	261.163
762.168	258.113
762.296	258.225
762.424	249.675
762.552	253.450
762.680	252.238
762.808	250.700
762.937	257.300
763.065	248.262
763.193	251.100
763.321	250.100
763.449	242.800
763.577	243.887
763.705	251.338
763.833	265.413
763.962	242.375
764.090	240.937
764.218	242.338
764.346	244.012
764.474	240.750
764.602	240.912
764.730	238.537
764.858	240.450
764.987	240.738
765.115	242.012
765.243	250.713
765.371	235.037
765.499	231.162
765.627	235.662
765.755	228.350
765.883	237.275
766.012	233.213
766.140	230.812
766.268	235.300
766.396	226.350
766.524	224.162
766.652	230.863
766.780	226.650
766.908	229.300
767.037	228.750
767.165	226.875
767.293	234.850
767.421	223.400
767.549	218.488
767.677	229.588
767.805	218.200
767.933	225.537
768.062	226.988
768.190	220.588
768.318	220.950
768.446	229.912
768.574	226.500
768.702	219.463
768.830	217.975
768.958	212.488
769.087	221.250
769.215	211.887
769.343	218.012
769.471	221.312
769.599	219.363
769.727	214.137
769.855	215.787
769.983	215.562
770.112	212.300
770.240	213.000
770.368	213.037
770.496	205.412
770.624	208.075
770.752	211.475
770.880	221.062
771.008	205.275
771.137	209.463
771.265	208.988
771.393	205.075
771.521	207.025
771.649	202.575
771.777	205.250
771.905	202.950
772.033	206.025
772.162	203.375
772.290	204.175
772.418	212.250
772.546	198.250
772.674	201.262
772.802	202.600
772.930	201.562
773.058	194.863
773.187	203.037
773.315	203.863
773.443	201.687
773.571	194.262
773.699	194.488
773.827	191.675
773.955	203.075
774.083	209.037
774.212	195.562
774.340	196.437
774.468	196.187
774.596	194.050
774.724	199.975
774.852	189.312
774.980	192.687
775.108	190.262
775.237	185.250
775.365	187.637
775.493	187.238
775.621	187.887
775.749	191.162
775.877	192.050
776.005	186.725
776.133	189.863
776.262	190.262
776.390	185.050
776.518	189.700
776.646	183.113
776.774	181.488
776.902	188.125
777.030	183.175
777.158	184.400
777.287	187.287
777.415	181.312
777.543	179.025
777.671	180.875
777.799	179.325
777.927	183.900
778.055	185.225
778.183	180.613
778.312	175.825
778.440	179.387
778.568	181.588
778.696	171.875
778.824	179.000
778.952	177.600
779.080	175.613
779.208	180.937
779.337	178.375
779.465	181.825
779.593	177.975
779.721	180.387
779.849	171.825
779.977	176.400
780.105	168.437
780.233	178.500
780.362	181.662
780.490	177.100
780.618	171.863
780.746	174.075
780.874	169.175
781.002	167.375
781.130	170.387
781.258	170.963
781.387	172.338
781.515	169.500
781.643	169.275
781.771	178.925
781.899	170.075
782.027	171.400
782.155	166.875
782.283	164.912
782.412	168.675
782.540	168.988
782.668	170.662
782.796	159.800
782.924	165.050
783.052	155.162
783.180	169.350
783.308	159.963
783.437	165.625
783.565	165.425
783.693	164.062
783.821	169.125
783.949	159.850
784.077	167.062
784.205	167.937
784.333	173.850
784.462	155.488
784.590	165.512
784.718	164.137
784.846	157.762
784.974	161.175
785.102	169.200
785.230	160.613
785.358	170.613
785.487	157.900
785.615	160.838
785.743	155.512
785.871	153.150
785.999	161.050
786.127	150.025
786.255	164.787
786.383	162.175
786.512	154.387
786.640	153.900
786.768	162.750
786.896	153.488
787.024	155.838
787.152	153.325
787.280	152.988
787.408	152.500
787.537	154.537
787.665	153.713
787.793	158.950
787.921	159.300
788.049	151.825
788.177	148.050
788.305	149.725
788.433	154.450
788.562	153.625
788.690	148.863
788.818	149.637
788.946	145.037
789.074	146.350
789.202	147.713
789.330	148.137
789.458	150.312
789.587	151.875
789.715	149.312
789.843	152.475
789.971	147.300
790.099	146.200
790.227	147.437
790.355	144.875
790.483	149.412
790.612	147.787
790.740	147.000
790.868	154.412
790.996	149.500
791.124	149.175
791.252	148.575
791.380	147.412
791.508	143.600
791.637	156.812
791.765	142.887
791.893	142.975
792.021	149.137
792.149	141.988
792.277	146.262
792.405	147.637
792.533	153.363
792.662	138.925
792.790	142.025
792.918	150.988
793.046	140.750
793.174	141.375
793.302	141.400
793.430	146.375
793.558	149.613
793.687	141.225
793.815	145.100
793.943	144.275
794.071	143.662
794.199	136.412
794.327	140.412
794.455	162.588
794.583	152.963
794.712	147.600
794.840	138.825
794.968	141.613
795.096	145.075
795.224	138.000
795.352	135.113
795.480	144.150
795.608	142.500
795.737	142.225
795.865	145.300
795.993	135.463
796.121	138.325
796.249	141.275
796.377	137.250
796.505	141.113
796.633	141.600
796.762	135.113
796.890	147.400
797.018	138.412
797.146	136.900
797.274	135.275
797.402	136.200
797.530	137.750
797.658	137.162
797.787	141.750
797.915	134.937
798.043	139.775
798.171	140.350
798.299	135.150
798.427	135.700
798.555	135.037
798.683	130.825
798.812	137.475
798.940	136.225
799.068	136.250
799.196	140.012
799.324	130.950
799.452	139.912
799.580	133.113
799.708	144.588
799.837	131.100
799.965	130.850
800.093	136.900
800.221	133.062
800.349	135.637
800.477	132.113
800.605	135.412
800.733	135.675
800.862	134.375
800.990	145.137
801.118	137.363
801.246	130.350
801.374	130.213
801.502	133.525
801.630	125.638
801.758	128.713
801.887	134.537
802.015	129.775
802.143	131.825
802.271	130.687
802.399	133.488
802.527	133.488
802.655	132.287
802.783	135.750
802.912	132.937
803.040	130.550
803.168	127.312
803.296	127.350
803.424	131.512
803.552	130.037
803.680	126.812
803.808	128.475
803.937	128.725
804.065	127.025
804.193	128.088
804.321	134.613
804.449	128.000
804.577	127.562
804.705	126.388
804.833	128.025
804.962	120.487
805.090	124.350
805.218	131.300
805.346	128.488
805.474	126.412
805.602	140.937
805.730	126.312
805.858	121.062
805.987	135.387
806.115	131.262
806.243	128.463
806.371	122.500
806.499	123.287
806.627	121.162
806.755	131.213
806.883	123.513
807.012	128.425
807.140	124.062
807.268	120.763
807.396	126.838
807.524	119.287
807.652	125.025
807.780	136.387
807.908	122.450
808.037	131.238
808.165	125.963
808.293	125.937
808.421	133.900
808.549	122.187
808.677	118.275
808.805	129.512
808.933	124.437
809.062	119.900
809.190	131.912
809.318	123.312
809.446	122.737
809.574	122.737
809.702	123.700
809.830	120.088
809.958	127.900
810.087	121.050
810.215	132.575
810.343	136.725
810.471	126.825
810.599	120.737
810.727	119.213
810.855	119.463
810.983	123.963
811.112	124.025
811.240	119.675
811.368	121.312
811.496	132.150
811.624	125.312
811.752	120.475
811.880	119.425
812.008	116.200
812.137	121.500
812.265	120.937
812.393	119.987
812.521	122.625
812.649	124.487
812.777	120.912
812.905	126.937
813.033	116.750
813.162	117.638
813.290	118.737
813.418	122.138
813.546	121.825
813.674	118.062
813.802	119.763
813.930	116.237
814.058	114.400
814.187	114.912
814.315	123.050
814.443	117.062
814.571	112.437
814.699	124.838
814.827	120.412
814.955	122.300
815.083	117.088
815.212	119.450
815.340	119.612
815.468	115.338
815.596	117.825
815.724	121.625
815.852	123.487
815.980	112.475
816.108	112.025
816.237	117.500
816.365	121.388
816.493	118.812
816.621	112.763
816.749	117.700
816.877	116.525
817.005	119.513
817.133	115.500
817.262	115.537
817.390	118.862
817.518	113.375
817.646	119.213
817.774	114.025
817.902	119.075
818.030	115.600
818.158	118.763
818.287	113.725
818.415	110.975
818.543	114.588
818.671	119.112
818.799	115.263
818.927	120.125
819.055	115.350
819.183	115.675
819.312	111.525
819.440	118.513
819.568	115.075
819.696	121.825
819.824	118.638
819.952	114.388
820.080	111.875
820.208	115.700
820.337	112.900
820.465	120.175
820.593	116.325
820.721	112.437
820.849	112.875
820.977	115.600
821.105	112.588
821.233	113.713
821.362	117.600
821.490	112.388
821.618	113.088
821.746	113.112
821.874	112.925
822.002	116.600
822.130	115.100
822.258	109.650
822.387	114.287
822.515	114.525
822.643	112.175
822.771	110.975
822.899	114.900
823.027	112.013
823.155	110.062
823.283	114.525
823.412	116.125
823.540	114.175
823.668	131.238
823.796	113.713
823.924	115.213
824.052	118.487
824.180	109.550
824.308	109.662
824.437	109.737
824.565	109.275
824.693	113.025
824.821	112.000
824.949	112.850
825.077	111.800
825.205	118.350
825.333	112.263
825.462	117.812
825.590	108.700
825.718	115.025
825.846	110.650
825.974	113.900
826.102	114.700
826.230	111.763
826.358	114.225
826.487	109.187
826.615	110.812
826.743	111.300
826.871	115.062
826.999	115.312
827.127	114.812
827.255	111.213
827.383	108.838
827.512	109.312
827.640	113.675
827.768	109.912
827.896	107.800
828.024	112.375
828.152	114.513
828.280	110.713
828.408	110.425
828.537	110.800
828.665	108.800
828.793	109.362
828.921	108.937
829.049	110.713
829.177	109.200
829.305	108.987
829.433	110.088
829.562	107.812
829.690	108.763
829.818	112.963
829.946	114.662
830.074	108.000
830.202	111.675
830.330	110.638
830.458	106.900
830.587	108.838
830.715	111.812
830.843	110.100
830.971	108.537
831.099	111.125
831.227	107.888
831.355	107.138
831.483	108.775
831.612	111.513
831.740	112.463
831.868	111.562
831.996	109.275
832.124	114.338
832.252	107.237
832.380	110.562
832.508	110.650
832.637	112.213
832.765	110.800
832.893	112.287
833.021	112.300
833.149	106.638
833.277	109.550
833.405	109.812
833.533	109.088
833.662	106.912
833.790	111.437
833.918	111.275
834.046	111.662
834.174	112.700
834.302	109.838
834.430	108.875
834.558	108.912
834.687	110.475
834.815	110.725
834.943	107.763
835.071	106.525
835.199	108.075
835.327	108.463
835.455	106.937
835.583	108.325
835.712	105.575
835.840	109.312
835.968	106.900
836.096	110.638
836.224	113.075
836.352	107.475
836.480	110.200
836.608	113.500
836.737	107.600
836.865	109.812
836.993	108.312
837.121	107.925
837.249	108.650
837.377	111.350
837.505	110.237
837.633	107.187
837.762	108.987
837.890	108.287
838.018	114.513
838.146	107.513
838.274	111.500
838.402	113.037
838.530	108.138
838.658	107.575
838.787	110.700
838.915	110.025
839.043	109.600
839.171	113.487
839.299	107.362
839.427	111.900
839.555	119.588
839.683	109.812
839.812	106.537
839.940	105.287
840.068	109.187
840.196	106.562
840.324	110.838
840.452	109.112
840.580	113.737
840.708	108.838
840.837	108.000
840.965	110.125
841.093	111.750
841.221	110.162
841.349	111.562
841.477	109.713
841.605	109.312
841.733	108.162
841.862	107.987
841.990	107.588
842.118	104.963
842.246	106.562
842.374	105.450
842.502	107.150
842.630	107.537
842.758	105.612
842.887	106.287
843.015	108.987
843.143	108.175
843.271	110.575
843.399	110.675
843.527	105.487
843.655	109.800
843.783	108.000
843.912	104.875
844.040	110.875
844.168	114.800
844.296	109.888
844.424	109.400
844.552	107.475
844.680	112.787
844.808	112.175
844.937	106.750
845.065	104.013
845.193	106.975
845.321	106.588
845.449	106.700
845.577	106.675
845.705	111.000
845.833	107.362
845.962	107.350
846.090	106.800
846.218	111.537
846.346	107.175
846.474	105.775
846.602	106.463
846.730	105.112
846.858	103.937
846.987	104.388
847.115	107.287
847.243	109.350
847.371	110.250
847.499	108.925
847.627	106.850
847.755	105.525
847.883	108.175
848.012	110.237
848.140	106.862
848.268	108.250
848.396	108.025
848.524	106.312
848.652	105.875
848.780	105.275
848.908	105.162
849.037	107.775
849.165	107.088
849.293	108.775
849.421	112.850
849.549	107.912
849.677	106.737
849.805	110.437
849.933	107.612
850.062	105.112
850.190	105.950
850.318	107.062
850.446	107.138
850.574	104.975
850.702	108.687
850.830	111.287
850.958	108.612
851.087	106.912
851.215	113.588
851.343	107.250
851.471	108.225
851.599	109.112
851.727	109.737
851.855	107.900
851.983	110.237
852.112	108.100
852.240	107.825
852.368	105.800
852.496	103.700
852.624	104.662
852.752	108.088
852.880	105.700
853.008	113.050
853.137	114.275
853.265	105.638
853.393	109.513
853.521	113.325
853.649	109.838
853.777	105.650
853.905	106.950
854.033	106.425
854.162	108.000
854.290	107.450
854.418	104.037
854.546	105.250
854.674	107.975
854.802	106.875
854.930	106.750
855.058	104.300
855.187	103.862
855.315	105.513
855.443	104.287
855.571	105.612
855.699	105.350
855.827	105.625
855.955	104.775
856.083	106.437
856.212	105.875
856.340	107.475
856.468	110.812
856.596	105.500
856.724	108.775
856.852	109.013
856.980	106.100
857.108	107.662
857.237	108.888
857.365	108.362
857.493	107.350
857.621	108.100
857.749	105.013
857.877	111.025
858.005	108.800
858.133	107.725
858.262	106.263
858.390	104.263
858.518	103.000
858.646	106.763
858.774	105.725
858.902	107.375
859.030	105.550
859.158	105.850
859.287	107.750
859.415	109.838
859.543	105.037
859.671	106.825
859.799	110.963
859.927	106.562
860.055	107.700
860.183	106.362
860.312	105.575
860.440	104.900
860.568	109.687
860.696	109.763
860.824	119.925
860.952	105.638
861.080	107.362
861.208	106.000
861.337	109.900
861.465	107.950
861.593	110.437
861.721	105.013
861.849	108.213
861.977	108.575
862.105	107.138
862.233	103.287
862.362	105.475
862.490	105.838
862.618	104.737
862.746	105.237
862.874	104.562
863.002	105.700
863.130	110.237
863.258	105.062
863.387	107.725
863.515	108.100
863.643	105.263
863.771	104.713
863.899	107.662
864.027	105.500
864.155	105.875
864.283	103.075
864.412	104.050
864.540	105.763
864.668	105.088
864.796	105.838
864.924	104.437
865.052	104.775
865.180	102.275
865.308	101.463
865.437	105.787
865.565	107.088
865.693	108.625
865.821	106.325
865.949	104.900
866.077	105.700
866.205	105.138
866.333	106.138
866.462	105.400
866.590	106.925
866.718	107.963
866.846	106.675
866.974	108.100
867.102	108.362
867.230	106.700
867.358	106.925
867.487	107.487
867.615	105.862
867.743	105.850
867.871	109.075
867.999	106.588
868.127	104.312
868.255	112.675
868.383	107.600
868.512	105.862
868.640	105.650
868.768	104.162
868.896	106.400
869.024	108.037
869.152	107.612
869.280	106.225
869.408	109.750
869.537	106.463
869.665	106.088
869.793	106.437
869.921	107.312
870.049	108.588
870.177	108.513
870.305	118.388
870.433	108.888
870.562	104.050
870.690	104.700
870.818	104.825
870.946	105.713
871.074	104.850
871.202	108.300
871.330	106.275
871.458	103.987
871.587	103.325
871.715	103.400
871.843	106.112
871.971	107.025
872.099	102.338
872.227	106.250
872.355	105.562
872.483	111.013
872.612	109.450
872.740	108.588
872.868	103.263
872.996	107.000
873.124	109.200
873.252	110.825
873.380	107.937
873.508	107.250
873.637	105.112
873.765	106.075
873.893	109.263
874.021	108.575
874.149	106.425
874.277	106.750
874.405	111.850
874.533	105.812
874.662	328.650
874.790	106.838
874.918	114.250
875.046	108.888
875.174	107.912
875.302	104.325
875.430	106.175
875.558	106.775
875.687	107.412
875.815	107.675
875.943	104.263
876.071	109.000
876.199	108.263
876.327	116.875
876.455	104.975
876.583	105.838
876.712	106.162
876.840	111.450
876.968	106.263
877.096	107.412
877.224	107.325
877.352	104.862
877.480	106.925
877.608	106.213
877.737	104.050
877.865	103.463
877.993	106.912
878.121	104.562
878.249	105.700
878.377	105.213
878.505	105.950
878.633	104.937
878.762	106.200
878.890	104.912
879.018	107.350
879.146	106.425
879.274	105.787
879.402	105.750
879.530	107.575
879.658	107.875
879.787	107.763
879.915	107.275
880.043	109.037
880.171	104.425
880.299	106.225
880.427	116.062
880.555	106.237
880.683	108.125
880.812	105.937
880.940	107.600
881.068	106.450
881.196	106.838
881.324	105.787
881.452	107.000
881.580	107.838
881.708	106.487
881.837	105.375
881.965	105.275
882.093	105.362
882.221	104.062
882.349	111.638
882.477	109.912
882.605	110.100
882.733	109.987
882.862	104.062
882.990	103.775
883.118	106.275
883.246	107.950
883.374	109.638
883.502	104.300
883.630	105.950
883.758	105.875
883.887	103.025
884.015	104.112
884.143	105.412
884.271	106.775
884.399	107.463
884.527	105.138
884.655	107.575
884.783	106.025
884.912	108.463
885.040	106.013
885.168	106.562
885.296	104.150
885.424	105.737
885.552	109.225
885.680	105.062
885.808	106.150
885.937	110.237
886.065	109.838
886.193	106.575
886.321	104.737
886.449	105.888
886.577	106.812
886.705	104.487
886.833	106.388
886.962	105.138
887.090	107.725
887.218	105.125
887.346	105.562
887.474	110.100
887.602	109.475
887.730	109.150
887.858	105.912
887.987	106.513
888.115	107.537
888.243	108.513
888.371	107.213
888.499	107.875
888.627	107.800
888.755	106.600
888.883	105.725
889.012	105.150
889.140	103.662
889.268	110.275
889.396	109.088
889.524	104.838
889.652	106.250
889.780	106.825
889.908	106.600
890.037	105.825
890.165	105.912
890.293	106.638
890.421	109.350
890.549	108.487
890.677	105.475
890.805	105.525
890.933	105.287
891.062	104.300
891.190	110.062
891.318	110.750
891.446	109.525
891.574	106.537
891.702	105.000
891.830	104.975
891.958	108.500
892.087	109.812
892.215	104.838
892.343	108.425
892.471	106.925
892.599	107.112
892.727	108.437
892.855	108.263
892.983	107.213
893.112	107.125
893.240	108.763
893.368	109.550
893.496	110.388
893.624	108.287
893.752	108.912
893.880	106.562
894.008	106.075
894.137	107.513
894.265	111.325
894.393	109.737
894.521	107.338
894.649	106.263
894.777	104.737
894.905	106.650
895.033	112.763
895.162	108.725
895.290	115.575
895.418	108.700
895.546	110.700
895.674	115.037
895.802	107.112
895.930	107.775
896.058	104.588
896.187	106.888
896.315	108.338
896.443	110.200
896.571	109.338
896.699	108.013
896.827	107.963
896.955	110.287
897.083	108.375
897.212	108.287
897.340	105.562
897.468	105.263
897.596	107.900
897.724	107.062
897.852	111.588
897.980	107.687
898.108	104.812
898.237	104.737
898.365	107.138
898.493	106.275
898.621	110.138
898.749	106.800
898.877	106.350
899.005	106.487
899.133	106.475
899.262	107.350
899.390	105.375
899.518	107.725
899.646	106.937
899.774	112.312
899.902	118.463
900.030	106.687
900.158	108.237
900.287	107.562
900.415	106.787
900.543	106.588
900.671	105.400
900.799	107.412
900.927	109.487
901.055	108.125
901.183	109.338
901.312	107.400
901.440	109.638
901.568	109.300
901.696	108.225
901.824	109.687
901.952	116.150
902.080	111.150
902.208	108.588
902.337	108.463
902.465	107.588
902.593	110.100
902.721	108.775
902.849	108.900
902.977	107.675
903.105	112.800
903.233	114.263
903.362	111.825
903.490	108.888
903.618	105.525
903.746	110.025
903.874	108.687
904.002	108.600
904.130	114.525
904.258	109.975
904.387	109.937
904.515	109.250
904.643	108.838
904.771	108.987
904.899	109.125
905.027	107.100
905.155	108.912
905.283	110.638
905.412	114.725
905.540	111.425
905.668	105.537
905.796	105.112
905.924	107.237
906.052	108.400
906.180	107.612
906.308	113.925
906.437	111.600
906.565	112.888
906.693	108.250
906.821	106.662
906.949	107.375
907.077	109.812
907.205	111.900
907.333	109.013
907.462	108.562
907.590	113.088
907.718	110.075
907.846	109.162
907.974	106.838
908.102	108.013
908.230	110.325
908.358	115.775
908.487	111.687
908.615	110.388
908.743	111.013
908.871	120.037
908.999	110.100
909.127	110.075
909.255	107.888
909.383	108.575
909.512	111.662
909.640	110.112
909.768	112.287
909.896	121.125
910.024	114.450
910.152	113.600
910.280	118.950
910.408	110.963
910.537	119.888
910.665	117.937
910.793	113.263
910.921	113.700
911.049	112.162
911.177	110.200
911.305	110.537
911.433	111.875
911.562	107.650
911.690	108.525
911.818	121.912
911.946	113.987
912.074	113.075
912.202	116.312
912.330	110.513
912.458	115.412
912.587	116.862
912.715	113.075
912.843	114.450
912.971	117.312
913.099	116.350
913.227	115.362
913.355	115.350
913.483	117.050
913.612	113.150
913.740	121.088
913.868	118.112
