sample2_PP_at_750.00nm_cut_at_1008.00Y_01.dat
15.05.2023
10:56:07
cut middle at Y: 1008.00
top cursor: 1048 down cursor: 968 mean of: 80 lines , 2560 datapoints
wavelength(nm)	intensity[arb. units]
585.996	1939.925
586.124	1913.162
586.252	1924.625
586.380	1913.562
586.508	1929.037
586.637	1941.225
586.765	1939.275
586.893	1950.625
587.021	1971.700
587.149	1981.175
587.277	1987.300
587.405	2001.850
587.533	1989.475
587.662	2029.037
587.790	2020.050
587.918	2025.862
588.046	2037.763
588.174	2031.013
588.302	2036.250
588.430	2055.400
588.558	2050.838
588.687	2042.975
588.815	2092.238
588.943	2079.125
589.071	2078.250
589.199	2110.225
589.327	2098.750
589.455	2077.400
589.583	2105.800
589.712	2127.912
589.840	2143.838
589.968	2132.550
590.096	2145.000
590.224	2158.562
590.352	2151.812
590.480	2165.137
590.608	2174.050
590.737	2164.512
590.865	2198.575
590.993	2177.175
591.121	2204.738
591.249	2204.937
591.377	2204.050
591.505	2220.012
591.633	2222.213
591.762	2246.575
591.890	2300.375
592.018	2243.662
592.146	2250.225
592.274	2273.363
592.402	2271.838
592.530	2269.687
592.658	2359.850
592.787	2309.525
592.915	2353.637
593.043	2319.125
593.171	2320.887
593.299	2349.812
593.427	2344.550
593.555	2335.762
593.683	2348.650
593.812	2385.250
593.940	2396.125
594.068	2400.075
594.196	2441.500
594.324	2406.287
594.452	2442.775
594.580	2452.800
594.708	2471.937
594.837	2470.475
594.965	2516.012
595.093	2519.175
595.221	2528.012
595.349	2609.825
595.477	2535.137
595.605	2543.463
595.733	2573.363
595.862	2692.525
595.990	2585.625
596.118	2612.100
596.246	2719.225
596.374	2650.213
596.502	2649.412
596.630	2675.937
596.758	2668.450
596.887	2675.875
597.015	2683.687
597.143	2695.738
597.271	2689.200
597.399	2688.863
597.527	2697.687
597.655	2732.713
597.783	2713.825
597.912	2732.350
598.040	2767.550
598.168	2806.588
598.296	2739.113
598.424	2768.775
598.552	2807.988
598.680	2757.162
598.808	2930.887
598.937	2809.162
599.065	2807.100
599.193	2912.012
599.321	2910.562
599.449	2839.312
599.577	2816.262
599.705	2908.287
599.833	2831.012
599.962	2845.412
600.090	2931.750
600.218	2902.037
600.346	2985.925
600.474	2897.000
600.602	2856.400
600.730	2937.338
600.858	2905.287
600.987	3076.275
601.115	2959.400
601.243	2949.963
601.371	2966.325
601.499	2987.287
601.627	3006.375
601.755	3002.363
601.883	3058.625
602.012	3042.600
602.140	3015.088
602.268	3144.812
602.396	3082.000
602.524	3113.937
602.652	3105.062
602.780	3125.900
602.908	3136.400
603.037	3195.238
603.165	3197.025
603.293	3212.825
603.421	3218.238
603.549	3237.262
603.677	3301.425
603.805	3297.363
603.933	3305.562
604.062	3402.325
604.190	3364.062
604.318	3351.375
604.446	3360.700
604.574	3423.662
604.702	3419.950
604.830	3442.700
604.958	3456.975
605.087	3511.437
605.215	3504.537
605.343	3484.300
605.471	3549.838
605.599	3554.012
605.727	3561.650
605.855	3601.287
605.983	3589.887
606.112	3590.900
606.240	3616.687
606.368	3649.912
606.496	3848.725
606.624	3656.762
606.752	3725.975
606.880	3858.050
607.008	3946.350
607.137	3914.650
607.265	3735.150
607.393	3791.062
607.521	3895.613
607.649	3786.075
607.777	3822.787
607.905	3854.687
608.033	3856.588
608.162	3833.725
608.290	3919.000
608.418	3866.075
608.546	3903.412
608.674	3937.338
608.802	3908.275
608.930	3912.025
609.058	3907.412
609.187	3971.950
609.315	3977.012
609.443	3929.750
609.571	4035.800
609.699	3945.925
609.827	4003.800
609.955	4022.425
610.083	3980.275
610.212	3986.488
610.340	4006.875
610.468	4081.775
610.596	4069.687
610.724	4109.600
610.852	4047.875
610.980	4079.475
611.108	4155.488
611.237	4059.000
611.365	4088.437
611.493	4075.787
611.621	4144.525
611.749	4138.450
611.877	4159.525
612.005	4175.725
612.133	4193.775
612.262	4175.262
612.390	4185.937
612.518	4240.775
612.646	4339.937
612.774	4231.988
612.902	4249.937
613.030	4287.663
613.158	4383.950
613.287	4325.875
613.415	4317.825
613.543	4306.400
613.671	4329.250
613.799	4401.050
613.927	4408.475
614.055	4410.050
614.183	4546.850
614.312	4415.325
614.440	4577.750
614.568	4488.087
614.696	4475.812
614.824	4648.775
614.952	4539.350
615.080	4519.650
615.208	4590.600
615.337	4578.387
615.465	4602.562
615.593	4622.400
615.721	4655.587
615.849	4693.663
615.977	4714.962
616.105	4765.962
616.233	4697.687
616.362	4797.913
616.490	4748.525
616.618	4732.850
616.746	4816.425
616.874	4872.187
617.002	4846.613
617.130	4890.600
617.258	5007.850
617.387	4883.212
617.515	4856.100
617.643	4921.400
617.771	4968.137
617.899	4967.150
618.027	4916.937
618.155	5035.613
618.283	4952.012
618.412	4975.325
618.540	5077.312
618.668	5017.837
618.796	5006.613
618.924	5136.363
619.052	5016.675
619.180	4999.900
619.308	5046.725
619.437	5096.575
619.565	5083.775
619.693	5055.575
619.821	5103.275
619.949	5058.900
620.077	5112.087
620.205	5148.788
620.333	5148.900
620.462	5140.387
620.590	5216.163
620.718	5102.800
620.846	5235.488
620.974	5243.712
621.102	5185.413
621.230	5143.613
621.358	5282.762
621.487	5161.125
621.615	5170.800
621.743	5233.450
621.871	5216.187
621.999	5310.462
622.127	5220.937
622.255	5263.712
622.383	5223.587
622.512	5255.000
622.640	5408.900
622.768	5228.300
622.896	5266.900
623.024	5269.525
623.152	5379.850
623.280	5364.462
623.408	5278.163
623.537	5337.837
623.665	5297.250
623.793	5338.000
623.921	5314.687
624.049	5310.075
624.177	5329.863
624.305	5397.600
624.433	5382.012
624.562	5376.712
624.690	5403.637
624.818	5455.387
624.946	5556.562
625.074	5435.837
625.202	5397.488
625.330	5389.800
625.458	5476.613
625.587	5423.625
625.715	5490.038
625.843	5587.863
625.971	5463.587
626.099	5481.738
626.227	5459.450
626.355	5435.275
626.483	5551.312
626.612	5429.925
626.740	5455.075
626.868	5524.988
626.996	5457.250
627.124	5472.637
627.252	5468.462
627.380	5522.437
627.508	5501.337
627.637	5449.800
627.765	5499.550
627.893	5500.800
628.021	5522.400
628.149	5537.538
628.277	5554.413
628.405	5633.113
628.533	5513.337
628.662	5583.738
628.790	5559.275
628.918	5511.050
629.046	5534.637
629.174	5547.863
629.302	5683.100
629.430	5545.575
629.558	5570.462
629.687	5594.137
629.815	5585.087
629.943	5629.562
630.071	5608.988
630.199	5633.363
630.327	5641.550
630.455	5612.288
630.583	5722.262
630.712	5657.187
630.840	5669.863
630.968	5709.050
631.096	5668.538
631.224	5650.587
631.352	5671.512
631.480	5702.187
631.608	5679.637
631.737	5786.363
631.865	5878.137
631.993	5715.775
632.121	5803.613
632.249	5799.175
632.377	5780.575
632.505	5773.275
632.633	5686.225
632.762	5780.725
632.890	5874.587
633.018	5705.788
633.146	5795.062
633.274	5784.413
633.402	5762.512
633.530	5729.525
633.658	5879.137
633.787	5678.125
633.915	5785.913
634.043	5739.687
634.171	5731.762
634.299	5766.288
634.427	5851.825
634.555	5771.562
634.683	5718.238
634.812	5722.937
634.940	5722.137
635.068	5661.738
635.196	5717.825
635.324	5714.337
635.452	5787.337
635.580	5645.925
635.708	5666.663
635.837	5714.012
635.965	5665.712
636.093	5625.550
636.221	5590.312
636.349	5689.725
636.477	5546.825
636.605	5752.613
636.733	5547.650
636.862	5545.800
636.990	5578.712
637.118	5610.250
637.246	5561.637
637.374	5511.250
637.502	5506.925
637.630	5463.038
637.758	5487.337
637.887	5448.475
638.015	5431.663
638.143	5404.012
638.271	5412.825
638.399	5394.687
638.527	5393.163
638.655	5359.887
638.783	5491.387
638.912	5410.363
639.040	5367.962
639.168	5396.275
639.296	5331.962
639.424	5449.113
639.552	5301.837
639.680	5326.625
639.808	5349.387
639.937	5265.837
640.065	5270.550
640.193	5382.025
640.321	5251.175
640.449	5301.187
640.577	5358.837
640.705	5271.788
640.833	5370.775
640.962	5221.863
641.090	5223.850
641.218	5200.038
641.346	5219.000
641.474	5229.400
641.602	5185.900
641.730	5202.613
641.858	5175.275
641.987	5198.187
642.115	5166.400
642.243	5214.312
642.371	5202.538
642.499	5168.538
642.627	5183.488
642.755	5227.988
642.883	5209.875
643.012	5166.863
643.140	5103.587
643.268	5127.750
643.396	5149.062
643.524	5274.250
643.652	5139.625
643.780	5136.937
643.908	5106.062
644.037	5241.887
644.165	5102.775
644.293	5136.000
644.421	5053.850
644.549	5155.512
644.677	5069.413
644.805	5128.937
644.933	5041.625
645.062	5058.425
645.190	5039.712
645.318	5123.812
645.446	5041.837
645.574	5060.350
645.702	5030.750
645.830	5189.525
645.958	4969.000
646.087	5157.038
646.215	4994.125
646.343	5159.675
646.471	5022.562
646.599	5045.675
646.727	4965.525
646.855	4963.925
646.983	4997.012
647.112	4902.762
647.240	5090.113
647.368	4932.437
647.496	4982.712
647.624	4884.012
647.752	4894.413
647.880	4863.850
648.008	4854.087
648.137	4852.738
648.265	4830.163
648.393	4829.288
648.521	4815.238
648.649	4805.175
648.777	4815.262
648.905	4764.475
649.033	4773.587
649.162	4752.762
649.290	4721.238
649.418	4773.187
649.546	4731.363
649.674	4751.100
649.802	4698.750
649.930	4822.400
650.058	4595.800
650.187	4656.738
650.315	4587.062
650.443	4680.012
650.571	4586.363
650.699	4557.712
650.827	4521.300
650.955	4544.238
651.083	4544.350
651.212	4582.562
651.340	4566.000
651.468	4483.250
651.596	4441.337
651.724	4423.937
651.852	4410.137
651.980	4390.675
652.108	4477.812
652.237	4404.475
652.365	4442.663
652.493	4325.200
652.621	4343.100
652.749	4385.150
652.877	4260.375
653.005	4292.837
653.133	4274.087
653.262	4288.250
653.390	4211.450
653.518	4346.163
653.646	4228.337
653.774	4398.562
653.902	4205.163
654.030	4170.225
654.158	4157.700
654.287	4125.525
654.415	4149.163
654.543	4138.850
654.671	4156.875
654.799	4101.425
654.927	4049.662
655.055	4044.562
655.183	4055.800
655.312	4050.887
655.440	4048.562
655.568	3974.150
655.696	4081.275
655.824	4097.650
655.952	3985.262
656.080	3944.238
656.208	4079.975
656.337	3932.238
656.465	3950.225
656.593	3960.162
656.721	3888.838
656.849	3959.575
656.977	3863.550
657.105	3875.937
657.233	3823.463
657.362	3822.838
657.490	3804.400
657.618	3785.512
657.746	3802.225
657.874	3756.325
658.002	3730.600
658.130	3746.525
658.258	3701.650
658.387	3717.613
658.515	3685.775
658.643	3720.738
658.771	3679.687
658.899	3677.037
659.027	3682.637
659.155	3662.463
659.283	3818.425
659.412	3630.125
659.540	3713.537
659.668	3588.200
659.796	3630.025
659.924	3644.537
660.052	3545.312
660.180	3556.363
660.308	3566.900
660.437	3529.875
660.565	3508.812
660.693	3490.238
660.821	3482.850
660.949	3468.512
661.077	3459.400
661.205	3465.075
661.333	3432.750
661.462	3521.800
661.590	3468.838
661.718	3601.250
661.846	3487.838
661.974	3576.900
662.102	3418.625
662.230	3404.800
662.358	3373.238
662.487	3371.588
662.615	3339.975
662.743	3280.562
662.871	3333.312
662.999	3285.588
663.127	3272.450
663.255	3414.963
663.383	3372.963
663.512	3254.738
663.640	3277.687
663.768	3226.925
663.896	3228.350
664.024	3298.575
664.152	3216.725
664.280	3249.400
664.408	3219.325
664.537	3263.187
664.665	3146.363
664.793	3133.437
664.921	3149.350
665.049	3143.650
665.177	3148.825
665.305	3147.463
665.433	3128.937
665.562	3083.125
665.690	3112.525
665.818	3266.800
665.946	3118.463
666.074	3070.238
666.202	3019.662
666.330	3091.825
666.458	3071.425
666.587	2978.825
666.715	2997.050
666.843	2979.187
666.971	2956.625
667.099	2982.687
667.227	2964.762
667.355	2982.312
667.483	2940.787
667.612	2940.875
667.740	2954.588
667.868	2989.725
667.996	2923.400
668.124	2881.225
668.252	2874.137
668.380	2862.088
668.508	2871.775
668.637	2853.588
668.765	2830.662
668.893	2870.750
669.021	2802.075
669.149	2861.150
669.277	2865.900
669.405	2789.488
669.533	2782.588
669.662	3052.113
669.790	2785.100
669.918	2843.213
670.046	2746.875
670.174	2838.113
670.302	2799.250
670.430	2746.162
670.558	2798.488
670.687	2721.625
670.815	2823.850
670.943	2687.550
671.071	2704.300
671.199	2718.750
671.327	2668.637
671.455	2673.475
671.583	2653.650
671.712	2755.363
671.840	2653.037
671.968	2626.925
672.096	2608.000
672.224	2618.312
672.352	2679.050
672.480	2595.625
672.608	2563.338
672.737	2567.762
672.865	2642.825
672.993	2534.400
673.121	2524.700
673.249	2519.900
673.377	2485.838
673.505	2496.400
673.633	2477.213
673.762	2476.025
673.890	2460.613
674.018	2541.812
674.146	2449.363
674.274	2447.387
674.402	2508.588
674.530	2433.937
674.658	2422.338
674.787	2386.137
674.915	2378.437
675.043	2387.875
675.171	2389.325
675.299	2372.787
675.427	2359.838
675.555	2348.075
675.683	2341.650
675.812	2318.200
675.940	2314.963
676.068	2319.762
676.196	2302.037
676.324	2308.213
676.452	2280.325
676.580	2269.387
676.708	2268.475
676.837	2306.075
676.965	2229.812
677.093	2254.787
677.221	2225.525
677.349	2212.325
677.477	2206.113
677.605	2174.125
677.733	2207.300
677.862	2166.488
677.990	2183.287
678.118	2151.875
678.246	2137.137
678.374	2117.363
678.502	2114.613
678.630	2105.525
678.758	2099.500
678.887	2096.650
679.015	2111.637
679.143	2060.838
679.271	2073.850
679.399	2051.838
679.527	2039.838
679.655	2030.112
679.783	2038.687
679.912	2030.700
680.040	2012.912
680.168	2003.400
680.296	1990.537
680.424	1994.388
680.552	1975.437
680.680	1965.263
680.808	1953.900
680.937	1957.975
681.065	1952.150
681.193	1936.263
681.321	1935.612
681.449	1918.200
681.577	1921.750
681.705	1895.775
681.833	1891.263
681.962	1869.912
682.090	1882.588
682.218	1882.037
682.346	1861.775
682.474	1851.175
682.602	1852.638
682.730	1842.463
682.858	1827.175
682.987	1839.187
683.115	1806.200
683.243	1808.612
683.371	1805.287
683.499	1788.975
683.627	1797.937
683.755	1771.175
683.883	1773.350
684.012	1770.287
684.140	1752.237
684.268	1746.588
684.396	1765.850
684.524	1730.550
684.652	1747.075
684.780	1740.125
684.908	1707.588
685.037	1712.950
685.165	1719.450
685.293	1708.487
685.421	1683.550
685.549	1683.213
685.677	1687.350
685.805	1663.075
685.933	1677.912
686.062	1644.588
686.190	1648.612
686.318	1657.787
686.446	1645.700
686.574	1634.388
686.702	1634.450
686.830	1622.900
686.958	1613.287
687.087	1606.537
687.215	1600.475
687.343	1586.800
687.471	1586.912
687.599	1568.412
687.727	1568.713
687.855	1569.888
687.983	1572.925
688.112	1567.900
688.240	1538.713
688.368	1545.550
688.496	1538.713
688.624	1535.300
688.752	1526.487
688.880	1530.700
689.008	1503.838
689.137	1516.588
689.265	1495.825
689.393	1485.013
689.521	1482.237
689.649	1477.475
689.777	1484.612
689.905	1466.237
690.033	1478.263
690.162	1456.612
690.290	1427.200
690.418	1450.475
690.546	1453.963
690.674	1444.463
690.802	1410.412
690.930	1414.475
691.058	1415.763
691.187	1391.250
691.315	1403.263
691.443	1389.325
691.571	1384.425
691.699	1366.050
691.827	1372.562
691.955	1370.000
692.083	1368.950
692.212	1339.100
692.340	1357.562
692.468	1344.562
692.596	1332.150
692.724	1329.412
692.852	1310.700
692.980	1330.263
693.108	1303.937
693.237	1306.225
693.365	1293.312
693.493	1283.662
693.621	1275.950
693.749	1279.975
693.877	1265.437
694.005	1268.888
694.133	1270.763
694.262	1256.775
694.390	1227.987
694.518	1217.588
694.646	1230.975
694.774	1231.350
694.902	1216.825
695.030	1230.750
695.158	1203.725
695.287	1203.338
695.415	1196.325
695.543	1191.963
695.671	1183.575
695.799	1173.325
695.927	1175.200
696.055	1164.287
696.183	1166.237
696.312	1158.612
696.440	1142.450
696.568	1128.125
696.696	1127.325
696.824	1129.000
696.952	1127.312
697.080	1111.138
697.208	1128.187
697.337	1094.850
697.465	1105.375
697.593	1092.388
697.721	1082.625
697.849	1077.862
697.977	1077.550
698.105	1074.088
698.233	1073.888
698.362	1059.325
698.490	1063.737
698.618	1052.487
698.746	1054.162
698.874	1053.537
699.002	1043.925
699.130	1033.812
699.258	1032.562
699.387	1005.525
699.515	1014.612
699.643	1021.750
699.771	1007.013
699.899	1008.388
700.027	1008.888
700.155	1005.638
700.283	1007.862
700.412	990.487
700.540	976.788
700.668	974.125
700.796	967.950
700.924	972.075
701.052	959.487
701.180	950.975
701.308	955.612
701.437	939.462
701.565	942.350
701.693	929.425
701.821	948.138
701.949	936.237
702.077	912.862
702.205	928.663
702.333	900.038
702.462	905.675
702.590	897.413
702.718	907.788
702.846	890.513
702.974	900.050
703.102	892.337
703.230	881.450
703.358	869.712
703.487	870.125
703.615	866.900
703.743	857.150
703.871	859.638
703.999	851.575
704.127	844.837
704.255	834.187
704.383	845.150
704.512	823.400
704.640	827.125
704.768	818.100
704.896	817.538
705.024	817.663
705.152	812.875
705.280	809.725
705.408	801.575
705.537	804.138
705.665	802.875
705.793	796.138
705.921	782.362
706.049	786.462
706.177	780.800
706.305	773.087
706.433	775.550
706.562	766.775
706.690	752.138
706.818	758.150
706.946	757.675
707.074	756.337
707.202	747.125
707.330	752.175
707.458	746.450
707.587	736.837
707.715	732.175
707.843	734.163
707.971	733.775
708.099	727.200
708.227	712.337
708.355	712.350
708.483	716.212
708.612	709.362
708.740	706.712
708.868	693.325
708.996	700.625
709.124	694.312
709.252	692.425
709.380	678.325
709.508	674.275
709.637	671.937
709.765	683.175
709.893	664.538
710.021	667.725
710.149	655.237
710.277	670.050
710.405	659.263
710.533	654.437
710.662	660.237
710.790	660.187
710.918	646.812
711.046	649.100
711.174	636.725
711.302	636.275
711.430	630.538
711.558	634.187
711.687	626.812
711.815	612.825
711.943	632.413
712.071	615.062
712.199	616.712
712.327	609.888
712.455	613.212
712.583	608.112
712.712	615.413
712.840	606.788
712.968	601.337
713.096	595.300
713.224	591.200
713.352	592.038
713.480	579.587
713.608	577.925
713.737	580.862
713.865	579.025
713.993	570.475
714.121	573.000
714.249	577.975
714.377	570.638
714.505	575.087
714.633	561.075
714.762	551.163
714.890	557.288
715.018	551.038
715.146	552.163
715.274	545.837
715.402	550.212
715.530	550.850
715.658	544.737
715.787	546.350
715.915	543.038
716.043	535.388
716.171	536.075
716.299	541.663
716.427	527.550
716.555	537.625
716.683	526.725
716.812	530.038
716.940	523.625
717.068	514.712
717.196	516.888
717.324	515.737
717.452	507.700
717.580	508.275
717.708	499.200
717.837	514.712
717.965	497.950
718.093	490.137
718.221	494.788
718.349	494.800
718.477	491.100
718.605	487.800
718.733	489.413
718.862	479.175
718.990	484.738
719.118	479.788
719.246	480.850
719.374	469.137
719.502	489.450
719.630	482.062
719.758	464.375
719.887	466.312
720.015	468.400
720.143	461.950
720.271	462.250
720.399	465.550
720.527	461.100
720.655	450.663
720.783	451.525
720.912	462.150
721.040	455.600
721.168	449.087
721.296	454.337
721.424	445.375
721.552	435.400
721.680	438.687
721.808	441.850
721.937	437.187
722.065	427.875
722.193	427.512
722.321	432.175
722.449	423.738
722.577	429.525
722.705	423.312
722.833	421.575
722.962	427.100
723.090	410.587
723.218	414.562
723.346	419.413
723.474	416.125
723.602	412.337
723.730	404.887
723.858	409.413
723.987	412.350
724.115	401.000
724.243	398.437
724.371	399.587
724.499	403.738
724.627	392.837
724.755	397.475
724.883	398.413
725.012	390.637
725.140	383.100
725.268	389.825
725.396	389.800
725.524	382.762
725.652	381.837
725.780	374.738
725.908	379.825
726.037	374.125
726.165	378.837
726.293	367.125
726.421	364.488
726.549	379.437
726.677	373.400
726.805	367.712
726.933	371.187
727.062	360.913
727.190	359.050
727.318	362.637
727.446	358.450
727.574	365.500
727.702	353.225
727.830	353.550
727.958	362.475
728.087	351.562
728.215	345.100
728.343	347.788
728.471	352.475
728.599	342.837
728.727	347.350
728.855	342.312
728.983	336.550
729.112	336.363
729.240	340.437
729.368	333.687
729.496	340.212
729.624	341.325
729.752	340.325
729.880	333.538
730.008	336.262
730.137	327.988
730.265	333.100
730.393	331.512
730.521	321.937
730.649	331.050
730.777	327.437
730.905	316.462
731.033	326.000
731.162	317.675
731.290	324.875
731.418	315.863
731.546	336.975
731.674	312.562
731.802	312.587
731.930	314.350
732.058	312.913
732.187	316.775
732.315	306.000
732.443	313.062
732.571	303.538
732.699	303.262
732.827	303.375
732.955	298.863
733.083	297.738
733.212	297.450
733.340	301.725
733.468	295.550
733.596	299.675
733.724	290.312
733.852	295.437
733.980	295.937
734.108	300.762
734.237	301.075
734.365	291.900
734.493	293.512
734.621	290.163
734.749	293.950
734.877	286.400
735.005	290.163
735.133	285.337
735.262	288.163
735.390	285.875
735.518	285.025
735.646	279.913
735.774	277.275
735.902	288.750
736.030	278.900
736.158	283.762
736.287	273.375
736.415	275.600
736.543	273.175
736.671	274.538
736.799	275.775
736.927	281.675
737.055	278.725
737.183	266.988
737.312	273.050
737.440	279.163
737.568	286.725
737.696	273.575
737.824	269.587
737.952	281.038
738.080	272.675
738.208	274.363
738.337	265.850
738.465	274.675
738.593	256.863
738.721	259.675
738.849	258.225
738.977	265.587
739.105	261.413
739.233	260.150
739.362	257.150
739.490	254.387
739.618	256.163
739.746	256.825
739.874	260.725
740.002	254.937
740.130	251.512
740.258	259.837
740.387	255.787
740.515	245.775
740.643	253.525
740.771	257.337
740.899	250.588
741.027	244.375
741.155	251.000
741.283	246.238
741.412	249.613
741.540	240.150
741.668	241.450
741.796	243.762
741.924	247.137
742.052	248.600
742.180	238.937
742.308	240.463
742.437	238.088
742.565	242.912
742.693	244.300
742.821	237.000
742.949	239.175
743.077	239.450
743.205	236.425
743.333	239.250
743.462	242.050
743.590	237.175
743.718	229.262
743.846	235.850
743.974	231.725
744.102	231.162
744.230	227.012
744.358	228.300
744.487	239.812
744.615	232.575
744.743	233.175
744.871	224.475
744.999	235.838
745.127	225.637
745.255	223.325
745.383	223.200
745.512	227.213
745.640	223.975
745.768	224.225
745.896	222.387
746.024	219.425
746.152	217.775
746.280	220.100
746.408	229.113
746.537	219.450
746.665	228.187
746.793	217.012
746.921	213.287
747.049	214.637
747.177	223.475
747.305	213.363
747.433	221.562
747.562	211.637
747.690	206.412
747.818	211.050
747.946	210.425
748.074	228.713
748.202	216.200
748.330	208.400
748.458	217.025
748.587	215.088
748.715	205.025
748.843	212.475
748.971	208.075
749.099	204.650
749.227	212.425
749.355	205.350
749.483	203.463
749.612	203.625
749.740	198.062
749.868	204.925
749.996	202.475
750.124	203.875
750.252	203.025
750.380	203.238
750.508	204.125
750.637	199.175
750.765	198.725
750.893	194.463
751.021	202.100
751.149	199.062
751.277	203.512
751.405	203.262
751.533	208.325
751.662	196.900
751.790	211.287
751.918	206.537
752.046	193.575
752.174	191.225
752.302	204.475
752.430	201.687
752.558	193.012
752.687	192.850
752.815	204.287
752.943	193.262
753.071	188.787
753.199	192.613
753.327	201.000
753.455	190.075
753.583	183.050
753.712	192.125
753.840	187.187
753.968	188.125
754.096	183.037
754.224	185.613
754.352	182.225
754.480	182.963
754.608	179.562
754.737	188.275
754.865	181.512
754.993	187.787
755.121	179.025
755.249	191.300
755.377	179.000
755.505	180.500
755.633	194.162
755.762	174.000
755.890	190.912
756.018	186.262
756.146	178.412
756.274	185.713
756.402	174.450
756.530	178.512
756.658	189.363
756.787	180.312
756.915	171.650
757.043	180.713
757.171	179.625
757.299	175.575
757.427	176.088
757.555	174.125
757.683	181.562
757.812	177.450
757.940	179.762
758.068	172.162
758.196	170.225
758.324	172.387
758.452	168.512
758.580	174.187
758.708	174.700
758.837	170.762
758.965	182.975
759.093	171.975
759.221	167.562
759.349	169.700
759.477	165.113
759.605	169.088
759.733	171.037
759.862	172.363
759.990	166.975
760.118	169.100
760.246	162.025
760.374	166.825
760.502	170.200
760.630	169.363
760.758	162.200
760.887	159.000
761.015	161.338
761.143	165.287
761.271	164.562
761.399	158.950
761.527	163.762
761.655	159.713
761.783	166.100
761.912	157.312
762.040	164.562
762.168	163.162
762.296	161.675
762.424	154.537
762.552	157.025
762.680	166.762
762.808	160.187
762.937	166.213
763.065	161.375
763.193	164.175
763.321	158.150
763.449	156.637
763.577	154.050
763.705	157.488
763.833	180.325
763.962	154.412
764.090	156.475
764.218	161.200
764.346	157.300
764.474	156.025
764.602	155.775
764.730	154.262
764.858	152.137
764.987	159.450
765.115	165.488
765.243	163.137
765.371	154.975
765.499	149.350
765.627	150.637
765.755	151.925
765.883	149.675
766.012	155.338
766.140	150.525
766.268	150.713
766.396	148.050
766.524	148.050
766.652	146.775
766.780	146.863
766.908	150.912
767.037	150.613
767.165	146.287
767.293	157.900
767.421	150.787
767.549	149.687
767.677	151.525
767.805	144.875
767.933	149.463
768.062	149.325
768.190	148.175
768.318	145.562
768.446	160.037
768.574	156.863
768.702	151.700
768.830	148.800
768.958	149.100
769.087	151.425
769.215	147.387
769.343	144.475
769.471	149.550
769.599	151.650
769.727	143.687
769.855	146.988
769.983	141.150
770.112	143.000
770.240	148.425
770.368	143.762
770.496	142.425
770.624	142.887
770.752	145.488
770.880	158.050
771.008	141.187
771.137	144.762
771.265	143.762
771.393	145.475
771.521	145.363
771.649	141.500
771.777	138.537
771.905	142.488
772.033	147.287
772.162	147.925
772.290	144.550
772.418	152.137
772.546	139.400
772.674	139.912
772.802	146.600
772.930	146.300
773.058	140.562
773.187	142.937
773.315	145.812
773.443	141.075
773.571	140.300
773.699	135.450
773.827	138.738
773.955	146.150
774.083	151.312
774.212	136.838
774.340	137.687
774.468	139.900
774.596	139.025
774.724	147.162
774.852	133.512
774.980	139.825
775.108	137.287
775.237	133.300
775.365	135.187
775.493	140.963
775.621	139.550
775.749	139.412
775.877	144.912
776.005	134.537
776.133	139.325
776.262	138.200
776.390	135.588
776.518	144.713
776.646	137.100
776.774	134.200
776.902	138.963
777.030	134.925
777.158	136.550
777.287	139.512
777.415	138.175
777.543	133.363
777.671	133.387
777.799	131.137
777.927	136.225
778.055	138.125
778.183	138.863
778.312	133.150
778.440	131.450
778.568	138.300
778.696	132.338
778.824	140.875
778.952	131.725
779.080	135.900
779.208	141.325
779.337	136.375
779.465	137.325
779.593	133.650
779.721	138.637
779.849	132.750
779.977	135.100
780.105	131.812
780.233	133.363
780.362	141.450
780.490	133.012
780.618	134.187
780.746	134.150
780.874	130.588
781.002	131.200
781.130	130.537
781.258	132.338
781.387	135.588
781.515	131.137
781.643	132.175
781.771	138.625
781.899	135.887
782.027	132.113
782.155	130.750
782.283	128.225
782.412	131.062
782.540	136.750
782.668	131.787
782.796	128.187
782.924	130.650
783.052	128.162
783.180	137.062
783.308	125.700
783.437	130.738
783.565	134.250
783.693	133.300
783.821	133.475
783.949	127.900
784.077	131.787
784.205	134.850
784.333	141.075
784.462	127.725
784.590	131.312
784.718	130.437
784.846	124.325
784.974	130.613
785.102	138.250
785.230	130.475
785.358	139.325
785.487	129.950
785.615	133.262
785.743	127.900
785.871	126.713
785.999	131.625
786.127	124.825
786.255	137.525
786.383	137.088
786.512	131.100
786.640	129.238
786.768	134.687
786.896	128.812
787.024	129.425
787.152	124.537
787.280	123.100
787.408	129.500
787.537	128.625
787.665	128.887
787.793	129.025
787.921	129.463
788.049	127.912
788.177	125.700
788.305	124.062
788.433	124.300
788.562	124.162
788.690	122.175
788.818	121.925
788.946	122.875
789.074	122.412
789.202	128.650
789.330	126.175
789.458	126.925
789.587	128.662
789.715	124.300
789.843	124.362
789.971	124.963
790.099	121.725
790.227	125.300
790.355	123.763
790.483	128.275
790.612	124.537
790.740	124.775
790.868	128.363
790.996	125.213
791.124	125.763
791.252	127.638
791.380	123.950
791.508	121.400
791.637	128.600
791.765	120.312
791.893	119.562
792.021	128.713
792.149	120.362
792.277	123.138
792.405	123.487
792.533	133.850
792.662	120.737
792.790	123.275
792.918	129.437
793.046	119.300
793.174	121.487
793.302	123.100
793.430	124.900
793.558	131.437
793.687	121.612
793.815	125.025
793.943	123.162
794.071	123.425
794.199	121.175
794.327	121.412
794.455	139.925
794.583	137.437
794.712	128.825
794.840	120.925
794.968	121.013
795.096	128.488
795.224	119.737
795.352	119.812
795.480	127.250
795.608	124.850
795.737	126.100
795.865	122.300
795.993	115.400
796.121	119.812
796.249	121.350
796.377	120.937
796.505	124.463
796.633	120.463
796.762	118.912
796.890	128.012
797.018	123.687
797.146	121.475
797.274	118.838
797.402	122.675
797.530	122.400
797.658	121.050
797.787	128.637
797.915	119.375
798.043	127.225
798.171	126.013
798.299	116.162
798.427	120.338
798.555	118.513
798.683	117.463
798.812	122.075
798.940	121.775
799.068	120.237
799.196	125.638
799.324	115.312
799.452	121.987
799.580	119.250
799.708	129.800
799.837	117.800
799.965	116.400
800.093	117.412
800.221	122.112
800.349	123.000
800.477	122.237
800.605	120.300
800.733	123.900
800.862	120.713
800.990	133.250
801.118	126.500
801.246	118.475
801.374	118.263
801.502	119.987
801.630	114.713
801.758	115.125
801.887	124.525
802.015	117.875
802.143	118.763
802.271	122.425
802.399	121.800
802.527	125.425
802.655	114.588
802.783	124.450
802.912	118.375
803.040	116.850
803.168	118.425
803.296	115.975
803.424	120.400
803.552	116.187
803.680	115.963
803.808	118.900
803.937	114.713
804.065	116.050
804.193	115.975
804.321	116.737
804.449	114.237
804.577	116.000
804.705	116.737
804.833	113.125
804.962	111.412
805.090	113.537
805.218	116.475
805.346	112.338
805.474	115.300
805.602	125.600
805.730	115.500
805.858	111.862
805.987	124.737
806.115	117.662
806.243	116.500
806.371	111.375
806.499	115.112
806.627	115.000
806.755	120.963
806.883	115.700
807.012	116.075
807.140	113.487
807.268	116.475
807.396	117.500
807.524	110.763
807.652	120.263
807.780	127.525
807.908	114.612
808.037	120.963
808.165	119.575
808.293	115.612
808.421	120.062
808.549	113.450
808.677	112.562
808.805	125.037
808.933	115.112
809.062	109.825
809.190	131.350
809.318	114.312
809.446	112.537
809.574	112.612
809.702	115.162
809.830	114.150
809.958	120.162
810.087	114.500
810.215	120.112
810.343	125.187
810.471	118.162
810.599	112.112
810.727	112.287
810.855	112.237
810.983	115.500
811.112	111.687
811.240	112.138
811.368	115.125
811.496	120.775
811.624	114.275
811.752	114.162
811.880	111.050
812.008	112.963
812.137	113.825
812.265	111.050
812.393	112.700
812.521	114.375
812.649	116.463
812.777	111.025
812.905	115.588
813.033	110.675
813.162	113.400
813.290	113.150
813.418	122.825
813.546	117.000
813.674	114.100
813.802	116.963
813.930	111.388
814.058	110.850
814.187	111.687
814.315	118.362
814.443	111.213
814.571	106.900
814.699	114.475
814.827	113.287
814.955	111.400
815.083	117.400
815.212	115.600
815.340	114.838
815.468	108.925
815.596	114.838
815.724	111.062
815.852	110.037
815.980	109.838
816.108	112.575
816.237	115.425
816.365	114.350
816.493	116.937
816.621	109.425
816.749	112.987
816.877	112.687
817.005	112.062
817.133	113.162
817.262	112.612
817.390	118.475
817.518	111.062
817.646	115.638
817.774	111.250
817.902	116.175
818.030	109.675
818.158	115.937
818.287	111.925
818.415	109.875
818.543	110.275
818.671	111.437
818.799	110.550
818.927	114.375
819.055	110.487
819.183	110.062
819.312	110.088
819.440	111.775
819.568	109.737
819.696	116.838
819.824	115.562
819.952	111.162
820.080	111.037
820.208	109.763
820.337	110.575
820.465	111.138
820.593	112.425
820.721	110.888
820.849	112.237
820.977	107.362
821.105	110.325
821.233	108.687
821.362	112.187
821.490	111.300
821.618	110.112
821.746	111.100
821.874	110.487
822.002	112.937
822.130	111.175
822.258	109.650
822.387	107.588
822.515	109.187
822.643	109.275
822.771	108.525
822.899	112.388
823.027	108.275
823.155	106.562
823.283	112.112
823.412	111.138
823.540	111.787
823.668	122.275
823.796	110.112
823.924	110.737
824.052	116.750
824.180	107.812
824.308	107.687
824.437	108.013
824.565	109.013
824.693	110.375
824.821	111.463
824.949	110.812
825.077	110.662
825.205	113.775
825.333	109.687
825.462	108.300
825.590	108.675
825.718	117.338
825.846	110.800
825.974	109.487
826.102	110.125
826.230	110.713
826.358	112.850
826.487	107.787
826.615	109.025
826.743	109.325
826.871	113.513
826.999	113.250
827.127	111.937
827.255	111.862
827.383	107.237
827.512	114.013
827.640	113.463
827.768	110.150
827.896	109.062
828.024	111.912
828.152	109.812
828.280	107.888
828.408	109.500
828.537	109.037
828.665	106.088
828.793	105.963
828.921	108.138
829.049	108.000
829.177	107.987
829.305	107.062
829.433	108.500
829.562	110.187
829.690	109.325
829.818	113.162
829.946	110.250
830.074	108.362
830.202	111.075
830.330	109.963
830.458	117.725
830.587	107.800
830.715	108.600
830.843	109.062
830.971	108.525
831.099	107.912
831.227	108.463
831.355	109.888
831.483	110.338
831.612	114.162
831.740	107.187
831.868	117.800
831.996	108.562
832.124	111.825
832.252	104.987
832.380	108.400
832.508	109.888
832.637	110.338
832.765	110.150
832.893	113.650
833.021	112.487
833.149	109.750
833.277	108.025
833.405	106.562
833.533	109.862
833.662	108.575
833.790	111.138
833.918	110.400
834.046	112.487
834.174	113.175
834.302	110.138
834.430	108.175
834.558	114.412
834.687	108.088
834.815	109.013
834.943	106.588
835.071	107.612
835.199	109.800
835.327	111.200
835.455	105.950
835.583	109.325
835.712	106.437
835.840	109.200
835.968	107.325
836.096	109.112
836.224	115.100
836.352	110.963
836.480	108.300
836.608	108.862
836.737	108.600
836.865	106.888
836.993	105.963
837.121	106.050
837.249	108.963
837.377	109.187
837.505	110.162
837.633	108.700
837.762	107.300
837.890	110.550
838.018	113.687
838.146	106.875
838.274	107.600
838.402	112.612
838.530	106.937
838.658	105.850
838.787	108.187
838.915	108.838
839.043	110.612
839.171	113.287
839.299	107.650
839.427	108.525
839.555	115.750
839.683	112.550
839.812	107.862
839.940	105.687
840.068	114.075
840.196	109.250
840.324	112.425
840.452	113.662
840.580	115.575
840.708	107.513
840.837	106.475
840.965	109.575
841.093	113.013
841.221	117.950
841.349	108.662
841.477	108.700
841.605	107.513
841.733	105.287
841.862	110.187
841.990	110.275
842.118	105.675
842.246	105.125
842.374	104.800
842.502	106.200
842.630	107.675
842.758	110.275
842.887	108.425
843.015	108.338
843.143	110.350
843.271	109.713
843.399	111.825
843.527	107.025
843.655	106.400
843.783	107.600
843.912	106.687
844.040	112.737
844.168	115.350
844.296	111.700
844.424	107.775
844.552	109.737
844.680	113.162
844.808	108.787
844.937	108.775
845.065	108.062
845.193	111.900
845.321	106.888
845.449	106.225
845.577	104.925
845.705	110.662
845.833	108.850
845.962	105.800
846.090	106.975
846.218	109.525
846.346	111.963
846.474	106.088
846.602	105.800
846.730	104.987
846.858	105.500
846.987	109.088
847.115	107.575
847.243	111.700
847.371	109.463
847.499	110.112
847.627	106.525
847.755	107.838
847.883	106.825
848.012	108.987
848.140	109.550
848.268	105.588
848.396	109.088
848.524	107.612
848.652	108.325
848.780	103.838
848.908	107.787
849.037	110.713
849.165	108.425
849.293	108.713
849.421	112.925
849.549	109.300
849.677	108.312
849.805	114.088
849.933	109.112
850.062	108.975
850.190	106.925
850.318	107.388
850.446	105.475
850.574	105.787
850.702	107.838
850.830	108.912
850.958	106.037
851.087	106.100
851.215	111.312
851.343	108.513
851.471	108.463
851.599	108.013
851.727	110.950
851.855	109.425
851.983	110.775
852.112	107.937
852.240	108.175
852.368	104.237
852.496	104.237
852.624	105.375
852.752	106.200
852.880	107.362
853.008	111.412
853.137	108.287
853.265	107.650
853.393	111.700
853.521	113.200
853.649	114.825
853.777	108.700
853.905	109.575
854.033	108.287
854.162	109.725
854.290	106.150
854.418	104.437
854.546	107.687
854.674	106.338
854.802	104.900
854.930	106.100
855.058	103.250
855.187	102.912
855.315	104.812
855.443	104.537
855.571	106.612
855.699	108.362
855.827	107.513
855.955	106.825
856.083	108.225
856.212	105.475
856.340	106.812
856.468	106.237
856.596	108.612
856.724	108.725
856.852	106.725
856.980	107.812
857.108	108.987
857.237	111.100
857.365	108.963
857.493	106.600
857.621	107.175
857.749	104.625
857.877	106.662
858.005	112.062
858.133	109.800
858.262	108.050
858.390	105.763
858.518	105.013
858.646	106.975
858.774	105.125
858.902	105.425
859.030	107.588
859.158	106.950
859.287	107.250
859.415	108.513
859.543	105.625
859.671	107.350
859.799	110.537
859.927	106.700
860.055	107.687
860.183	105.062
860.312	103.187
860.440	104.125
860.568	110.300
860.696	108.700
860.824	119.625
860.952	105.912
861.080	106.825
861.208	107.263
861.337	109.425
861.465	111.700
861.593	112.713
861.721	107.338
861.849	105.125
861.977	108.013
862.105	108.375
862.233	104.112
862.362	106.350
862.490	108.388
862.618	108.763
862.746	105.650
862.874	108.237
863.002	108.687
863.130	108.750
863.258	109.437
863.387	108.200
863.515	107.362
863.643	107.213
863.771	108.300
863.899	110.338
864.027	105.400
864.155	105.525
864.283	107.562
864.412	109.088
864.540	106.612
864.668	105.150
864.796	112.412
864.924	108.687
865.052	105.713
865.180	107.575
865.308	103.838
865.437	107.937
865.565	108.375
865.693	106.400
865.821	109.388
865.949	107.125
866.077	107.450
866.205	106.900
866.333	105.862
866.462	109.187
866.590	106.138
866.718	108.375
866.846	108.325
866.974	108.662
867.102	111.487
867.230	108.400
867.358	107.937
867.487	107.013
867.615	108.275
867.743	107.263
867.871	111.350
867.999	109.000
868.127	108.375
868.255	118.537
868.383	113.312
868.512	106.213
868.640	107.838
868.768	108.800
868.896	109.475
869.024	109.675
869.152	108.638
869.280	107.713
869.408	109.987
869.537	108.787
869.665	110.325
869.793	107.675
869.921	109.275
870.049	108.312
870.177	108.500
870.305	116.662
870.433	109.562
870.562	105.425
870.690	104.638
870.818	105.013
870.946	106.338
871.074	105.138
871.202	103.625
871.330	107.825
871.458	106.525
871.587	106.787
871.715	106.025
871.843	107.787
871.971	106.300
872.099	106.975
872.227	107.138
872.355	107.125
872.483	111.775
872.612	108.775
872.740	109.775
872.868	103.987
872.996	105.950
873.124	108.650
873.252	107.987
873.380	107.725
873.508	106.537
873.637	105.475
873.765	108.875
873.893	109.162
874.021	108.650
874.149	108.200
874.277	109.050
874.405	112.250
874.533	106.787
874.662	339.062
874.790	114.287
874.918	115.100
875.046	108.350
875.174	109.450
875.302	107.900
875.430	110.013
875.558	108.550
875.687	109.638
875.815	106.312
875.943	104.250
876.071	107.612
876.199	108.850
876.327	105.862
876.455	105.812
876.583	108.138
876.712	110.375
876.840	110.638
876.968	109.213
877.096	107.737
877.224	105.225
877.352	105.338
877.480	105.213
877.608	106.537
877.737	107.300
877.865	108.575
877.993	109.862
878.121	110.263
878.249	111.350
878.377	105.250
878.505	107.612
878.633	110.275
878.762	108.150
878.890	111.138
879.018	104.838
879.146	108.675
879.274	109.662
879.402	106.412
879.530	105.638
879.658	107.338
879.787	105.850
879.915	107.612
880.043	110.213
880.171	105.725
880.299	106.575
880.427	119.000
880.555	107.737
880.683	109.562
880.812	107.775
880.940	110.287
881.068	108.925
881.196	107.800
881.324	109.600
881.452	110.525
881.580	108.375
881.708	105.750
881.837	105.838
881.965	106.237
882.093	108.388
882.221	104.550
882.349	110.912
882.477	110.588
882.605	110.575
882.733	112.025
882.862	106.713
882.990	107.687
883.118	109.037
883.246	107.062
883.374	110.075
883.502	106.275
883.630	106.987
883.758	107.400
883.887	107.487
884.015	106.088
884.143	108.287
884.271	107.950
884.399	107.150
884.527	107.450
884.655	109.125
884.783	108.250
884.912	108.325
885.040	106.875
885.168	105.200
885.296	105.525
885.424	106.875
885.552	108.925
885.680	107.475
885.808	107.437
885.937	111.862
886.065	108.287
886.193	105.513
886.321	105.937
886.449	108.888
886.577	109.525
886.705	105.838
886.833	105.750
886.962	105.050
887.090	109.213
887.218	107.200
887.346	111.250
887.474	115.787
887.602	109.862
887.730	105.625
887.858	108.937
887.987	109.112
888.115	113.287
888.243	110.487
888.371	110.475
888.499	107.687
888.627	106.525
888.755	107.562
888.883	105.963
889.012	109.513
889.140	108.125
889.268	115.600
889.396	122.287
889.524	107.650
889.652	108.300
889.780	110.888
889.908	111.638
890.037	111.237
890.165	109.912
890.293	109.300
890.421	107.575
890.549	110.513
890.677	109.088
890.805	105.713
890.933	108.425
891.062	105.875
891.190	113.175
891.318	111.900
891.446	111.987
891.574	107.975
891.702	108.713
891.830	107.400
891.958	110.138
892.087	112.225
892.215	107.713
892.343	108.812
892.471	108.062
892.599	107.388
892.727	110.350
892.855	108.950
892.983	109.062
893.112	108.500
893.240	108.412
893.368	108.687
893.496	109.975
893.624	107.825
893.752	109.350
893.880	108.287
894.008	108.600
894.137	110.888
894.265	113.463
894.393	110.487
894.521	111.875
894.649	110.362
894.777	105.612
894.905	107.713
895.033	112.175
895.162	110.612
895.290	108.900
895.418	108.713
895.546	110.650
895.674	114.775
895.802	108.213
895.930	106.912
896.058	105.487
896.187	106.175
896.315	107.475
896.443	109.975
896.571	108.650
896.699	109.937
896.827	107.412
896.955	108.987
897.083	105.763
897.212	108.500
897.340	106.687
897.468	106.763
897.596	110.250
897.724	108.588
897.852	115.650
897.980	109.975
898.108	108.950
898.237	107.150
898.365	106.675
898.493	105.950
898.621	110.037
898.749	107.213
898.877	106.412
899.005	106.575
899.133	108.037
899.262	109.312
899.390	107.937
899.518	107.625
899.646	107.412
899.774	112.312
899.902	120.875
900.030	109.400
900.158	106.825
900.287	113.862
900.415	108.213
900.543	106.888
900.671	112.312
900.799	109.450
900.927	111.550
901.055	108.412
901.183	111.175
901.312	108.725
901.440	110.800
901.568	112.213
901.696	109.450
901.824	108.963
901.952	116.025
902.080	112.088
902.208	115.050
902.337	110.125
902.465	110.013
902.593	110.375
902.721	110.850
902.849	109.475
902.977	108.537
903.105	113.200
903.233	115.075
903.362	111.150
903.490	110.713
903.618	107.275
903.746	113.388
903.874	111.562
904.002	109.100
904.130	111.112
904.258	109.525
904.387	107.862
904.515	106.013
904.643	108.412
904.771	108.400
904.899	108.925
905.027	109.037
905.155	106.075
905.283	110.937
905.412	121.475
905.540	113.600
905.668	107.987
905.796	106.388
905.924	108.237
906.052	109.037
906.180	109.275
906.308	116.263
906.437	113.963
906.565	115.400
906.693	110.650
906.821	108.638
906.949	108.975
907.077	111.700
907.205	113.013
907.333	113.900
907.462	112.750
907.590	114.125
907.718	111.537
907.846	113.200
907.974	112.162
908.102	112.112
908.230	110.487
908.358	114.838
908.487	111.650
908.615	111.912
908.743	113.612
908.871	120.237
908.999	109.937
909.127	114.662
909.255	108.850
909.383	109.388
909.512	112.888
909.640	110.838
909.768	112.037
909.896	121.850
910.024	115.650
910.152	113.675
910.280	121.388
910.408	110.875
910.537	113.737
910.665	114.500
910.793	112.550
910.921	116.725
911.049	113.888
911.177	111.775
911.305	113.675
911.433	113.687
911.562	111.075
911.690	114.888
911.818	120.912
911.946	121.875
912.074	113.737
912.202	111.638
912.330	112.537
912.458	111.575
912.587	113.425
912.715	117.325
912.843	112.875
912.971	116.825
913.099	115.250
913.227	117.800
913.355	117.225
913.483	112.388
913.612	113.237
913.740	122.662
913.868	113.862
