sample7_PS_at_750.00nm_cut_at_1008.00Y_01.dat
15.05.2023
11:04:11
cut middle at Y: 1008.00
top cursor: 1048 down cursor: 968 mean of: 80 lines , 2560 datapoints
wavelength(nm)	intensity[arb. units]
585.996	1683.162
586.124	1645.550
586.252	1639.400
586.380	1626.775
586.508	1633.250
586.637	1643.562
586.765	1637.487
586.893	1638.338
587.021	1650.388
587.149	1648.750
587.277	1654.025
587.405	1661.425
587.533	1643.800
587.662	1675.100
587.790	1681.725
587.918	1669.487
588.046	1679.138
588.174	1674.362
588.302	1689.450
588.430	1679.875
588.558	1668.812
588.687	1684.050
588.815	1704.562
588.943	1697.662
589.071	1691.187
589.199	1701.350
589.327	1679.750
589.455	1676.200
589.583	1679.237
589.712	1696.025
589.840	1694.500
589.968	1684.775
590.096	1699.437
590.224	1697.838
590.352	1696.263
590.480	1692.862
590.608	1702.687
590.737	1694.075
590.865	1707.388
590.993	1700.838
591.121	1704.625
591.249	1713.450
591.377	1700.987
591.505	1694.175
591.633	1691.750
591.762	1718.263
591.890	1715.787
592.018	1715.025
592.146	1719.325
592.274	1732.162
592.402	1722.362
592.530	1720.662
592.658	1724.175
592.787	1735.725
592.915	1726.125
593.043	1734.937
593.171	1720.588
593.299	1751.013
593.427	1746.213
593.555	1738.750
593.683	1744.225
593.812	1743.263
593.940	1771.800
594.068	1770.037
594.196	1782.575
594.324	1748.437
594.452	1790.987
594.580	1801.388
594.708	1791.487
594.837	1803.588
594.965	1809.412
595.093	1803.013
595.221	1799.062
595.349	1822.112
595.477	1822.562
595.605	1817.888
595.733	1869.237
595.862	1853.175
595.990	1837.125
596.118	1856.650
596.246	1864.050
596.374	1882.162
596.502	1889.175
596.630	1885.475
596.758	1885.825
596.887	1894.900
597.015	1912.612
597.143	1868.950
597.271	1892.225
597.399	1923.750
597.527	1933.862
597.655	1908.588
597.783	1923.763
597.912	1915.500
598.040	1916.475
598.168	1918.375
598.296	1923.700
598.424	1909.900
598.552	1917.812
598.680	1920.312
598.808	1915.000
598.937	1941.963
599.065	1937.487
599.193	1916.150
599.321	1894.888
599.449	1935.750
599.577	1927.850
599.705	1915.475
599.833	1917.125
599.962	1907.812
600.090	1929.375
600.218	1927.662
600.346	1937.713
600.474	1950.950
600.602	1951.250
600.730	1945.700
600.858	1948.763
600.987	1947.150
601.115	1943.537
601.243	1952.050
601.371	1974.275
601.499	1967.100
601.627	1979.350
601.755	1996.263
601.883	1990.062
602.012	1991.750
602.140	1986.725
602.268	2013.987
602.396	2023.700
602.524	2005.550
602.652	2013.312
602.780	2017.588
602.908	2040.350
603.037	2051.150
603.165	2067.738
603.293	2082.662
603.421	2082.125
603.549	2069.550
603.677	2102.150
603.805	2089.162
603.933	2121.037
604.062	2109.775
604.190	2146.350
604.318	2139.062
604.446	2169.025
604.574	2162.900
604.702	2173.775
604.830	2171.863
604.958	2211.912
605.087	2216.675
605.215	2218.250
605.343	2224.125
605.471	2236.988
605.599	2267.338
605.727	2260.412
605.855	2269.300
605.983	2267.738
606.112	2292.175
606.240	2308.600
606.368	2323.437
606.496	2341.562
606.624	2301.200
606.752	2330.150
606.880	2353.537
607.008	2390.787
607.137	2379.162
607.265	2351.062
607.393	2377.150
607.521	2392.150
607.649	2349.963
607.777	2369.500
607.905	2367.312
608.033	2380.550
608.162	2383.762
608.290	2397.863
608.418	2417.700
608.546	2398.412
608.674	2432.537
608.802	2406.562
608.930	2423.575
609.058	2406.625
609.187	2420.725
609.315	2431.025
609.443	2425.238
609.571	2439.425
609.699	2418.525
609.827	2428.512
609.955	2452.375
610.083	2428.437
610.212	2436.662
610.340	2451.363
610.468	2454.700
610.596	2467.113
610.724	2464.875
610.852	2462.300
610.980	2452.575
611.108	2476.025
611.237	2470.988
611.365	2468.187
611.493	2467.575
611.621	2502.225
611.749	2493.525
611.877	2511.588
612.005	2514.012
612.133	2503.463
612.262	2498.975
612.390	2520.600
612.518	2521.912
612.646	2556.150
612.774	2537.050
612.902	2518.312
613.030	2552.250
613.158	2597.475
613.287	2570.787
613.415	2574.312
613.543	2574.387
613.671	2574.562
613.799	2604.600
613.927	2591.100
614.055	2603.613
614.183	2681.850
614.312	2601.562
614.440	2678.512
614.568	2639.488
614.696	2645.387
614.824	2753.637
614.952	2672.537
615.080	2643.012
615.208	2696.412
615.337	2677.425
615.465	2683.275
615.593	2713.475
615.721	2765.825
615.849	2736.613
615.977	2752.125
616.105	2790.412
616.233	2747.488
616.362	2835.800
616.490	2758.887
616.618	2771.125
616.746	2817.925
616.874	2876.500
617.002	2814.312
617.130	2872.863
617.258	2983.262
617.387	2859.250
617.515	2823.012
617.643	2879.037
617.771	2914.550
617.899	2925.238
618.027	2853.412
618.155	3004.275
618.283	2891.550
618.412	2927.975
618.540	3015.463
618.668	2970.887
618.796	2958.900
618.924	3082.325
619.052	2958.613
619.180	2938.863
619.308	2998.225
619.437	2992.338
619.565	2990.787
619.693	2967.137
619.821	3012.425
619.949	2997.900
620.077	3068.062
620.205	3074.425
620.333	3057.162
620.462	3091.588
620.590	3132.875
620.718	3053.088
620.846	3198.387
620.974	3168.437
621.102	3092.537
621.230	3073.312
621.358	3206.213
621.487	3091.387
621.615	3110.350
621.743	3126.875
621.871	3121.200
621.999	3215.300
622.127	3150.775
622.255	3168.775
622.383	3155.550
622.512	3162.050
622.640	3326.713
622.768	3118.762
622.896	3166.625
623.024	3161.650
623.152	3274.488
623.280	3243.863
623.408	3161.162
623.537	3209.562
623.665	3177.713
623.793	3226.850
623.921	3197.912
624.049	3186.900
624.177	3189.812
624.305	3251.025
624.433	3245.900
624.562	3235.687
624.690	3262.838
624.818	3302.900
624.946	3441.062
625.074	3271.838
625.202	3232.075
625.330	3240.450
625.458	3316.588
625.587	3267.137
625.715	3358.012
625.843	3421.200
625.971	3296.187
626.099	3284.838
626.227	3288.150
626.355	3261.000
626.483	3411.050
626.612	3292.950
626.740	3268.250
626.868	3376.437
626.996	3307.713
627.124	3322.437
627.252	3303.800
627.380	3360.900
627.508	3330.937
627.637	3320.213
627.765	3374.250
627.893	3371.187
628.021	3362.575
628.149	3407.012
628.277	3408.537
628.405	3463.738
628.533	3355.662
628.662	3444.437
628.790	3407.225
628.918	3408.050
629.046	3425.975
629.174	3441.238
629.302	3543.125
629.430	3417.525
629.558	3465.312
629.687	3485.488
629.815	3463.562
629.943	3520.238
630.071	3524.150
630.199	3525.350
630.327	3541.562
630.455	3505.950
630.583	3637.875
630.712	3572.775
630.840	3577.512
630.968	3614.950
631.096	3550.937
631.224	3566.600
631.352	3599.375
631.480	3638.850
631.608	3618.700
631.737	3705.250
631.865	3811.963
631.993	3621.213
632.121	3752.250
632.249	3763.588
632.377	3726.963
632.505	3720.275
632.633	3641.375
632.762	3741.400
632.890	3813.338
633.018	3689.863
633.146	3759.600
633.274	3765.925
633.402	3742.900
633.530	3714.088
633.658	3900.812
633.787	3720.338
633.915	3843.463
634.043	3749.250
634.171	3753.575
634.299	3816.637
634.427	3891.125
634.555	3832.512
634.683	3785.275
634.812	3796.713
634.940	3792.250
635.068	3743.463
635.196	3789.275
635.324	3782.312
635.452	3883.912
635.580	3793.937
635.708	3778.238
635.837	3830.512
635.965	3801.800
636.093	3810.950
636.221	3782.675
636.349	3885.588
636.477	3747.650
636.605	3943.988
636.733	3733.850
636.862	3757.875
636.990	3802.537
637.118	3850.787
637.246	3815.963
637.374	3788.950
637.502	3781.437
637.630	3723.137
637.758	3790.275
637.887	3734.375
638.015	3748.900
638.143	3742.250
638.271	3761.700
638.399	3736.312
638.527	3712.262
638.655	3696.325
638.783	3873.537
638.912	3759.088
639.040	3753.325
639.168	3775.887
639.296	3721.200
639.424	3846.750
639.552	3708.437
639.680	3739.088
639.808	3760.600
639.937	3680.200
640.065	3692.363
640.193	3790.875
640.321	3684.625
640.449	3752.650
640.577	3802.300
640.705	3732.075
640.833	3831.650
640.962	3681.062
641.090	3685.075
641.218	3656.762
641.346	3707.912
641.474	3730.713
641.602	3675.488
641.730	3694.200
641.858	3685.613
641.987	3713.912
642.115	3679.937
642.243	3737.537
642.371	3704.725
642.499	3685.900
642.627	3728.637
642.755	3781.838
642.883	3776.338
643.012	3725.463
643.140	3680.613
643.268	3720.850
643.396	3729.387
643.524	3849.400
643.652	3711.700
643.780	3708.463
643.908	3724.550
644.037	3866.725
644.165	3699.000
644.293	3718.375
644.421	3693.775
644.549	3795.600
644.677	3707.950
644.805	3749.713
644.933	3686.175
645.062	3724.062
645.190	3734.238
645.318	3784.525
645.446	3724.575
645.574	3739.900
645.702	3702.050
645.830	3891.850
645.958	3681.262
646.087	3892.012
646.215	3699.863
646.343	3878.113
646.471	3756.738
646.599	3767.437
646.727	3697.812
646.855	3728.812
646.983	3751.963
647.112	3689.425
647.240	3832.575
647.368	3723.700
647.496	3781.825
647.624	3656.425
647.752	3684.625
647.880	3671.425
648.008	3674.750
648.137	3656.262
648.265	3638.950
648.393	3636.900
648.521	3649.400
648.649	3667.537
648.777	3667.937
648.905	3609.162
649.033	3652.600
649.162	3648.575
649.290	3612.025
649.418	3691.600
649.546	3653.675
649.674	3689.787
649.802	3610.275
649.930	3745.137
650.058	3531.562
650.187	3584.062
650.315	3540.300
650.443	3621.488
650.571	3540.125
650.699	3524.437
650.827	3496.512
650.955	3549.338
651.083	3526.050
651.212	3583.500
651.340	3573.838
651.468	3509.213
651.596	3485.925
651.724	3447.437
651.852	3469.375
651.980	3440.238
652.108	3557.900
652.237	3489.675
652.365	3542.912
652.493	3392.025
652.621	3410.238
652.749	3474.012
652.877	3381.238
653.005	3410.350
653.133	3354.550
653.262	3436.387
653.390	3335.500
653.518	3474.238
653.646	3356.650
653.774	3539.537
653.902	3389.912
654.030	3286.137
654.158	3314.787
654.287	3308.150
654.415	3318.988
654.543	3320.312
654.671	3362.350
654.799	3284.238
654.927	3243.250
655.055	3234.562
655.183	3269.800
655.312	3246.400
655.440	3247.062
655.568	3213.175
655.696	3291.000
655.824	3305.725
655.952	3195.650
656.080	3146.750
656.208	3338.050
656.337	3171.100
656.465	3180.012
656.593	3217.600
656.721	3154.300
656.849	3198.312
656.977	3138.300
657.105	3138.550
657.233	3074.912
657.362	3090.900
657.490	3063.900
657.618	3076.838
657.746	3068.425
657.874	3035.738
658.002	3019.238
658.130	3066.350
658.258	3001.225
658.387	3042.713
658.515	2983.550
658.643	3043.075
658.771	2987.650
658.899	2992.387
659.027	2989.937
659.155	2973.325
659.283	3165.225
659.412	2965.213
659.540	3048.312
659.668	2920.900
659.796	2946.500
659.924	3003.137
660.052	2904.912
660.180	2936.675
660.308	2928.387
660.437	2892.012
660.565	2877.338
660.693	2869.175
660.821	2870.137
660.949	2863.450
661.077	2836.675
661.205	2864.162
661.333	2810.950
661.462	2931.950
661.590	2867.025
661.718	2976.637
661.846	2887.437
661.974	2936.525
662.102	2808.437
662.230	2819.412
662.358	2783.238
662.487	2786.375
662.615	2763.150
662.743	2742.463
662.871	2754.825
662.999	2731.725
663.127	2713.900
663.255	2801.687
663.383	2787.650
663.512	2697.812
663.640	2726.863
663.768	2677.100
663.896	2692.150
664.024	2716.512
664.152	2688.250
664.280	2710.912
664.408	2671.675
664.537	2722.675
664.665	2636.062
664.793	2591.937
664.921	2624.437
665.049	2626.088
665.177	2635.675
665.305	2616.363
665.433	2611.863
665.562	2591.425
665.690	2610.325
665.818	2685.012
665.946	2601.137
666.074	2566.850
666.202	2571.213
666.330	2573.988
666.458	2555.850
666.587	2529.325
666.715	2539.338
666.843	2518.812
666.971	2513.375
667.099	2533.600
667.227	2525.113
667.355	2517.738
667.483	2494.238
667.612	2503.425
667.740	2495.262
667.868	2528.250
667.996	2480.262
668.124	2472.012
668.252	2468.187
668.380	2451.100
668.508	2463.912
668.637	2455.275
668.765	2435.375
668.893	2463.075
669.021	2434.338
669.149	2427.800
669.277	2429.162
669.405	2410.562
669.533	2417.213
669.662	2459.550
669.790	2379.125
669.918	2408.675
670.046	2367.963
670.174	2413.113
670.302	2390.975
670.430	2363.800
670.558	2353.812
670.687	2356.575
670.815	2342.412
670.943	2325.113
671.071	2314.750
671.199	2323.175
671.327	2310.150
671.455	2308.200
671.583	2285.525
671.712	2297.200
671.840	2271.825
671.968	2261.488
672.096	2248.738
672.224	2257.300
672.352	2261.950
672.480	2239.475
672.608	2225.412
672.737	2236.613
672.865	2217.937
672.993	2184.437
673.121	2191.738
673.249	2189.300
673.377	2167.088
673.505	2173.400
673.633	2135.400
673.762	2148.525
673.890	2159.363
674.018	2169.300
674.146	2118.687
674.274	2138.762
674.402	2127.588
674.530	2119.525
674.658	2111.425
674.787	2064.488
674.915	2056.937
675.043	2078.463
675.171	2079.662
675.299	2054.287
675.427	2040.350
675.555	2034.763
675.683	2032.250
675.812	2012.325
675.940	2002.775
676.068	2026.912
676.196	1996.138
676.324	1980.500
676.452	1969.475
676.580	1963.275
676.708	1958.437
676.837	1991.800
676.965	1940.562
677.093	1939.362
677.221	1935.000
677.349	1918.388
677.477	1903.213
677.605	1887.475
677.733	1922.062
677.862	1889.475
677.990	1885.213
678.118	1881.162
678.246	1866.463
678.374	1842.625
678.502	1833.812
678.630	1824.737
678.758	1830.125
678.887	1817.875
679.015	1830.287
679.143	1804.100
679.271	1796.450
679.399	1797.200
679.527	1776.812
679.655	1764.888
679.783	1763.062
679.912	1774.987
680.040	1769.275
680.168	1754.588
680.296	1743.625
680.424	1749.062
680.552	1735.150
680.680	1735.100
680.808	1717.187
680.937	1726.687
681.065	1718.687
681.193	1693.125
681.321	1714.062
681.449	1705.350
681.577	1680.588
681.705	1673.287
681.833	1661.463
681.962	1640.975
682.090	1666.537
682.218	1657.400
682.346	1645.850
682.474	1635.562
682.602	1654.187
682.730	1623.175
682.858	1605.900
682.987	1628.588
683.115	1606.412
683.243	1601.513
683.371	1599.713
683.499	1591.963
683.627	1613.725
683.755	1584.200
683.883	1578.700
684.012	1572.187
684.140	1570.275
684.268	1549.025
684.396	1565.838
684.524	1556.187
684.652	1559.838
684.780	1544.475
684.908	1546.562
685.037	1537.950
685.165	1536.912
685.293	1523.700
685.421	1520.437
685.549	1492.638
685.677	1521.000
685.805	1498.237
685.933	1510.162
686.062	1473.537
686.190	1511.300
686.318	1488.150
686.446	1489.237
686.574	1470.825
686.702	1484.225
686.830	1468.475
686.958	1472.187
687.087	1458.537
687.215	1439.963
687.343	1450.000
687.471	1452.888
687.599	1424.437
687.727	1427.213
687.855	1441.062
687.983	1428.575
688.112	1431.400
688.240	1411.625
688.368	1418.225
688.496	1407.375
688.624	1412.225
688.752	1393.925
688.880	1407.900
689.008	1386.588
689.137	1384.950
689.265	1386.437
689.393	1377.037
689.521	1381.812
689.649	1362.287
689.777	1371.162
689.905	1356.225
690.033	1357.237
690.162	1348.075
690.290	1329.000
690.418	1332.350
690.546	1362.263
690.674	1341.112
690.802	1323.263
690.930	1327.225
691.058	1318.625
691.187	1296.525
691.315	1321.287
691.443	1305.250
691.571	1282.100
691.699	1286.662
691.827	1290.600
691.955	1285.687
692.083	1266.950
692.212	1270.150
692.340	1278.037
692.468	1267.875
692.596	1258.138
692.724	1251.662
692.852	1237.625
692.980	1247.513
693.108	1234.888
693.237	1234.088
693.365	1225.575
693.493	1215.325
693.621	1203.638
693.749	1202.213
693.877	1200.525
694.005	1189.700
694.133	1198.187
694.262	1188.500
694.390	1178.475
694.518	1162.575
694.646	1157.750
694.774	1171.237
694.902	1169.088
695.030	1185.263
695.158	1150.700
695.287	1143.937
695.415	1148.513
695.543	1149.775
695.671	1128.463
695.799	1125.237
695.927	1123.662
696.055	1115.700
696.183	1135.100
696.312	1108.725
696.440	1100.475
696.568	1102.187
696.696	1086.287
696.824	1087.350
696.952	1085.175
697.080	1076.888
697.208	1086.400
697.337	1063.513
697.465	1065.287
697.593	1058.412
697.721	1063.150
697.849	1054.050
697.977	1050.775
698.105	1045.025
698.233	1046.975
698.362	1031.638
698.490	1025.838
698.618	1024.638
698.746	1019.612
698.874	1030.725
699.002	1023.125
699.130	1004.850
699.258	1011.300
699.387	992.413
699.515	990.163
699.643	1010.950
699.771	994.237
699.899	983.587
700.027	982.812
700.155	978.500
700.283	977.925
700.412	974.737
700.540	958.575
700.668	955.462
700.796	967.737
700.924	950.788
701.052	952.237
701.180	947.987
701.308	951.825
701.437	925.212
701.565	934.875
701.693	928.288
701.821	946.300
701.949	942.312
702.077	909.125
702.205	919.312
702.333	907.800
702.462	904.812
702.590	907.475
702.718	905.575
702.846	894.975
702.974	901.275
703.102	892.763
703.230	898.275
703.358	879.062
703.487	872.612
703.615	882.000
703.743	860.375
703.871	868.812
703.999	851.013
704.127	852.562
704.255	850.175
704.383	855.562
704.512	827.925
704.640	838.263
704.768	831.663
704.896	834.000
705.024	832.913
705.152	828.250
705.280	823.550
705.408	823.250
705.537	813.025
705.665	811.562
705.793	805.362
705.921	798.062
706.049	814.562
706.177	795.837
706.305	795.538
706.433	786.425
706.562	788.638
706.690	784.675
706.818	777.700
706.946	777.975
707.074	778.475
707.202	765.325
707.330	764.275
707.458	764.550
707.587	757.862
707.715	761.975
707.843	748.612
707.971	753.062
708.099	749.950
708.227	737.100
708.355	734.263
708.483	735.587
708.612	737.900
708.740	734.025
708.868	719.087
708.996	732.125
709.124	731.687
709.252	718.312
709.380	718.462
709.508	705.987
709.637	713.962
709.765	702.462
709.893	704.038
710.021	704.837
710.149	692.888
710.277	703.712
710.405	697.600
710.533	679.100
710.662	681.050
710.790	686.138
710.918	682.138
711.046	671.288
711.174	673.400
711.302	669.237
711.430	669.937
711.558	679.062
711.687	668.075
711.815	661.725
711.943	668.400
712.071	656.013
712.199	663.587
712.327	652.163
712.455	643.663
712.583	646.500
712.712	663.163
712.840	639.200
712.968	636.138
713.096	638.413
713.224	634.000
713.352	636.600
713.480	620.513
713.608	628.050
713.737	622.663
713.865	622.638
713.993	611.812
714.121	611.663
714.249	621.237
714.377	607.525
714.505	616.937
714.633	599.875
714.762	600.475
714.890	605.300
715.018	605.975
715.146	587.362
715.274	594.212
715.402	587.250
715.530	589.312
715.658	588.600
715.787	585.425
715.915	585.450
716.043	579.775
716.171	586.375
716.299	592.663
716.427	572.462
716.555	577.812
716.683	577.025
716.812	565.225
716.940	571.975
717.068	557.525
717.196	557.687
717.324	561.687
717.452	553.775
717.580	555.250
717.708	551.250
717.837	560.337
717.965	557.962
718.093	545.700
718.221	542.300
718.349	541.375
718.477	542.937
718.605	533.288
718.733	539.950
718.862	530.475
718.990	533.700
719.118	533.837
719.246	531.975
719.374	529.038
719.502	534.725
719.630	528.913
719.758	517.263
719.887	511.050
720.015	528.025
720.143	511.025
720.271	514.050
720.399	513.788
720.527	520.212
720.655	499.837
720.783	511.500
720.912	516.925
721.040	509.087
721.168	504.225
721.296	514.325
721.424	495.500
721.552	492.288
721.680	491.587
721.808	493.025
721.937	500.400
722.065	479.637
722.193	480.462
722.321	489.262
722.449	479.675
722.577	482.387
722.705	471.625
722.833	479.187
722.962	487.163
723.090	467.538
723.218	470.050
723.346	468.800
723.474	467.150
723.602	468.788
723.730	465.000
723.858	464.950
723.987	465.962
724.115	457.387
724.243	464.538
724.371	453.262
724.499	464.675
724.627	450.675
724.755	459.363
724.883	451.387
725.012	439.650
725.140	443.062
725.268	442.913
725.396	441.550
725.524	434.950
725.652	444.137
725.780	439.500
725.908	435.600
726.037	429.262
726.165	427.288
726.293	423.225
726.421	424.600
726.549	428.788
726.677	412.925
726.805	422.400
726.933	424.988
727.062	416.988
727.190	415.800
727.318	414.262
727.446	418.875
727.574	415.700
727.702	411.462
727.830	410.425
727.958	417.825
728.087	405.050
728.215	400.812
728.343	399.475
728.471	405.038
728.599	398.413
728.727	401.887
728.855	402.650
728.983	396.212
729.112	392.962
729.240	399.275
729.368	392.137
729.496	394.712
729.624	389.900
729.752	391.550
729.880	389.000
730.008	387.275
730.137	377.300
730.265	383.087
730.393	378.087
730.521	376.738
730.649	384.187
730.777	377.150
730.905	375.725
731.033	378.750
731.162	375.712
731.290	375.238
731.418	367.587
731.546	387.800
731.674	372.863
731.802	365.038
731.930	368.925
732.058	369.562
732.187	364.875
732.315	362.600
732.443	366.275
732.571	354.475
732.699	357.712
732.827	355.887
732.955	355.413
733.083	346.437
733.212	351.187
733.340	353.988
733.468	350.550
733.596	349.675
733.724	342.137
733.852	351.250
733.980	345.962
734.108	346.137
734.237	351.587
734.365	331.800
734.493	349.587
734.621	339.512
734.749	343.775
734.877	337.650
735.005	337.075
735.133	339.837
735.262	332.238
735.390	333.738
735.518	338.725
735.646	332.163
735.774	330.238
735.902	329.425
736.030	330.812
736.158	336.050
736.287	324.187
736.415	327.988
736.543	327.025
736.671	320.137
736.799	325.750
736.927	330.650
737.055	321.375
737.183	318.988
737.312	321.800
737.440	326.437
737.568	335.050
737.696	320.725
737.824	318.712
737.952	326.725
738.080	322.337
738.208	322.663
738.337	314.175
738.465	320.725
738.593	308.913
738.721	308.275
738.849	314.000
738.977	307.325
739.105	308.575
739.233	304.087
739.362	304.700
739.490	304.775
739.618	308.187
739.746	305.363
739.874	308.012
740.002	304.812
740.130	292.413
740.258	301.800
740.387	296.788
740.515	292.988
740.643	299.775
740.771	306.538
740.899	296.613
741.027	294.250
741.155	298.812
741.283	287.613
741.412	291.175
741.540	284.900
741.668	283.750
741.796	286.975
741.924	295.762
742.052	288.825
742.180	292.625
742.308	286.337
742.437	286.325
742.565	293.300
742.693	286.975
742.821	281.800
742.949	280.775
743.077	281.550
743.205	280.887
743.333	279.200
743.462	281.600
743.590	283.187
743.718	274.300
743.846	273.337
743.974	276.925
744.102	271.625
744.230	267.337
744.358	273.650
744.487	285.025
744.615	266.288
744.743	273.212
744.871	267.900
744.999	277.600
745.127	263.962
745.255	263.775
745.383	268.650
745.512	262.387
745.640	259.450
745.768	262.575
745.896	265.325
746.024	260.962
746.152	259.875
746.280	259.262
746.408	267.400
746.537	265.275
746.665	261.675
746.793	254.325
746.921	256.600
747.049	257.325
747.177	259.988
747.305	254.350
747.433	256.375
747.562	250.363
747.690	251.562
747.818	251.463
747.946	253.600
748.074	270.075
748.202	250.613
748.330	245.338
748.458	252.912
748.587	250.713
748.715	244.250
748.843	246.900
748.971	241.425
749.099	246.025
749.227	248.525
749.355	240.425
749.483	239.262
749.612	243.463
749.740	240.700
749.868	240.562
749.996	242.062
750.124	240.400
750.252	241.650
750.380	238.088
750.508	239.600
750.637	234.700
750.765	239.363
750.893	231.312
751.021	238.613
751.149	233.588
751.277	246.875
751.405	239.900
751.533	242.200
751.662	236.963
751.790	246.600
751.918	246.075
752.046	228.687
752.174	225.875
752.302	240.525
752.430	239.100
752.558	229.963
752.687	227.525
752.815	238.613
752.943	230.187
753.071	227.287
753.199	224.625
753.327	230.512
753.455	219.600
753.583	222.550
753.712	225.400
753.840	222.550
753.968	223.213
754.096	214.575
754.224	221.125
754.352	213.275
754.480	221.000
754.608	219.775
754.737	218.437
754.865	218.425
754.993	217.488
755.121	214.213
755.249	223.250
755.377	208.425
755.505	213.525
755.633	228.725
755.762	211.325
755.890	226.000
756.018	216.762
756.146	209.213
756.274	215.150
756.402	208.725
756.530	208.637
756.658	222.375
756.787	205.250
756.915	206.187
757.043	212.062
757.171	211.488
757.299	206.875
757.427	207.363
757.555	209.713
757.683	212.537
757.812	206.150
757.940	207.875
758.068	205.613
758.196	197.450
758.324	201.600
758.452	201.437
758.580	200.338
758.708	206.025
758.837	195.200
758.965	209.463
759.093	205.412
759.221	196.425
759.349	202.575
759.477	195.000
759.605	194.387
759.733	195.613
759.862	200.463
759.990	192.275
760.118	199.338
760.246	189.550
760.374	196.037
760.502	196.775
760.630	192.275
760.758	189.662
760.887	187.863
761.015	191.200
761.143	194.025
761.271	190.325
761.399	190.287
761.527	191.162
761.655	190.025
761.783	191.687
761.912	183.637
762.040	189.850
762.168	186.675
762.296	186.450
762.424	182.312
762.552	183.963
762.680	193.037
762.808	186.475
762.937	185.187
763.065	183.125
763.193	186.687
763.321	182.750
763.449	176.662
763.577	177.338
763.705	185.012
763.833	205.625
763.962	175.825
764.090	182.113
764.218	180.400
764.346	184.662
764.474	176.137
764.602	181.988
764.730	177.062
764.858	178.287
764.987	182.037
765.115	185.925
765.243	191.412
765.371	175.825
765.499	173.200
765.627	173.275
765.755	172.463
765.883	171.925
766.012	169.988
766.140	171.812
766.268	173.262
766.396	172.375
766.524	171.787
766.652	172.600
766.780	165.412
766.908	176.738
767.037	175.412
767.165	167.588
767.293	176.600
767.421	171.037
767.549	168.437
767.677	172.750
767.805	167.475
767.933	173.287
768.062	170.725
768.190	165.062
768.318	167.575
768.446	175.025
768.574	175.125
768.702	173.500
768.830	165.662
768.958	166.400
769.087	170.875
769.215	167.338
769.343	166.887
769.471	167.850
769.599	169.050
769.727	169.900
769.855	167.250
769.983	166.713
770.112	162.300
770.240	169.550
770.368	163.225
770.496	160.450
770.624	158.037
770.752	167.775
770.880	177.787
771.008	159.937
771.137	165.000
771.265	164.137
771.393	160.088
771.521	160.775
771.649	162.512
771.777	156.687
771.905	165.387
772.033	162.537
772.162	161.437
772.290	162.775
772.418	168.113
772.546	156.713
772.674	161.687
772.802	165.162
772.930	164.512
773.058	160.175
773.187	161.100
773.315	163.025
773.443	162.800
773.571	158.613
773.699	157.113
773.827	154.412
773.955	164.637
774.083	172.713
774.212	155.662
774.340	158.400
774.468	159.150
774.596	157.812
774.724	164.488
774.852	151.000
774.980	159.537
775.108	152.312
775.237	151.950
775.365	152.800
775.493	154.150
775.621	153.387
775.749	150.863
775.877	156.100
776.005	152.425
776.133	158.412
776.262	156.225
776.390	152.238
776.518	160.225
776.646	149.363
776.774	148.912
776.902	151.750
777.030	151.125
777.158	149.912
777.287	152.863
777.415	151.137
777.543	145.887
777.671	148.787
777.799	149.312
777.927	152.625
778.055	151.750
778.183	151.588
778.312	145.937
778.440	145.600
778.568	149.787
778.696	146.250
778.824	156.250
778.952	147.037
779.080	149.950
779.208	152.000
779.337	149.113
779.465	152.300
779.593	149.125
779.721	153.575
779.849	146.787
779.977	147.825
780.105	142.787
780.233	150.937
780.362	152.075
780.490	150.125
780.618	145.750
780.746	149.325
780.874	142.825
781.002	147.037
781.130	147.675
781.258	146.113
781.387	152.575
781.515	149.312
781.643	141.912
781.771	155.562
781.899	146.575
782.027	144.088
782.155	142.537
782.283	142.350
782.412	146.325
782.540	149.162
782.668	146.500
782.796	143.050
782.924	144.800
783.052	140.537
783.180	149.838
783.308	138.762
783.437	147.425
783.565	147.825
783.693	145.050
783.821	146.037
783.949	139.637
784.077	143.988
784.205	147.850
784.333	152.575
784.462	137.800
784.590	143.037
784.718	146.213
784.846	138.550
784.974	143.625
785.102	153.925
785.230	141.662
785.358	152.000
785.487	142.650
785.615	144.950
785.743	140.687
785.871	136.350
785.999	141.400
786.127	133.925
786.255	150.450
786.383	145.450
786.512	139.838
786.640	141.113
786.768	147.537
786.896	139.675
787.024	137.588
787.152	135.100
787.280	138.825
787.408	137.637
787.537	137.950
787.665	138.363
787.793	139.662
787.921	139.012
788.049	135.025
788.177	135.775
788.305	133.375
788.433	140.825
788.562	133.213
788.690	130.925
788.818	136.650
788.946	133.738
789.074	134.525
789.202	139.775
789.330	134.812
789.458	138.250
789.587	136.675
789.715	138.613
789.843	135.975
789.971	133.450
790.099	132.838
790.227	138.125
790.355	131.512
790.483	139.625
790.612	132.988
790.740	135.250
790.868	140.338
790.996	134.350
791.124	139.887
791.252	137.713
791.380	139.512
791.508	134.562
791.637	145.312
791.765	129.650
791.893	132.238
792.021	137.887
792.149	130.575
792.277	132.700
792.405	134.775
792.533	140.650
792.662	130.812
792.790	130.625
792.918	140.525
793.046	129.125
793.174	132.262
793.302	133.525
793.430	132.338
793.558	139.687
793.687	131.537
793.815	131.725
793.943	133.937
794.071	131.912
794.199	128.838
794.327	131.175
794.455	148.300
794.583	147.312
794.712	135.750
794.840	132.025
794.968	130.200
795.096	135.062
795.224	132.600
795.352	127.150
795.480	136.750
795.608	131.613
795.737	131.537
795.865	130.613
795.993	126.100
796.121	129.725
796.249	130.850
796.377	128.375
796.505	135.062
796.633	130.863
796.762	131.175
796.890	135.713
797.018	130.075
797.146	127.700
797.274	125.200
797.402	126.888
797.530	130.338
797.658	126.562
797.787	133.975
797.915	127.737
798.043	131.787
798.171	133.488
798.299	129.150
798.427	129.912
798.555	129.700
798.683	124.525
798.812	128.400
798.940	132.075
799.068	128.650
799.196	131.450
799.324	125.875
799.452	131.037
799.580	127.300
799.708	138.875
799.837	126.862
799.965	124.487
800.093	124.812
800.221	128.387
800.349	129.812
800.477	126.612
800.605	128.162
800.733	132.713
800.862	128.625
800.990	143.275
801.118	129.812
801.246	124.138
801.374	127.388
801.502	129.412
801.630	120.450
801.758	125.562
801.887	130.775
802.015	127.150
802.143	122.787
802.271	126.737
802.399	129.338
802.527	125.875
802.655	127.588
802.783	131.787
802.912	127.687
803.040	124.175
803.168	123.075
803.296	122.187
803.424	126.450
803.552	122.300
803.680	123.125
803.808	121.625
803.937	122.612
804.065	122.950
804.193	123.550
804.321	134.750
804.449	122.912
804.577	123.000
804.705	124.412
804.833	117.225
804.962	118.850
805.090	119.075
805.218	129.200
805.346	124.463
805.474	122.250
805.602	136.950
805.730	123.112
805.858	120.013
805.987	129.700
806.115	128.100
806.243	124.450
806.371	119.150
806.499	123.900
806.627	120.425
806.755	126.925
806.883	121.388
807.012	122.300
807.140	124.287
807.268	118.112
807.396	128.125
807.524	119.763
807.652	124.338
807.780	136.550
807.908	120.675
808.037	127.187
808.165	123.362
808.293	123.500
808.421	132.713
808.549	118.088
808.677	115.475
808.805	130.238
808.933	119.362
809.062	118.600
809.190	139.262
809.318	125.513
809.446	119.687
809.574	118.275
809.702	121.225
809.830	118.263
809.958	126.062
810.087	121.263
810.215	124.412
810.343	131.700
810.471	121.562
810.599	120.138
810.727	120.600
810.855	116.250
810.983	119.112
811.112	119.463
811.240	120.088
811.368	122.612
811.496	127.925
811.624	120.000
811.752	119.250
811.880	117.062
812.008	116.162
812.137	120.513
812.265	115.800
812.393	119.638
812.521	120.687
812.649	120.537
812.777	115.138
812.905	120.950
813.033	116.800
813.162	117.588
813.290	113.888
813.418	115.875
813.546	117.175
813.674	116.400
813.802	122.812
813.930	116.300
814.058	112.975
814.187	114.025
814.315	118.437
814.443	116.700
814.571	113.638
814.699	118.537
814.827	116.625
814.955	116.487
815.083	116.950
815.212	118.225
815.340	115.763
815.468	114.950
815.596	114.000
815.724	113.412
815.852	112.600
815.980	112.875
816.108	116.737
816.237	116.737
816.365	114.862
816.493	115.650
816.621	112.937
816.749	115.388
816.877	114.412
817.005	118.550
817.133	116.463
817.262	116.537
817.390	124.537
817.518	115.000
817.646	118.350
817.774	114.550
817.902	118.187
818.030	113.775
818.158	119.162
818.287	117.062
818.415	113.888
818.543	111.263
818.671	115.612
818.799	114.900
818.927	114.650
819.055	112.725
819.183	112.412
819.312	113.250
819.440	116.000
819.568	116.513
819.696	123.088
819.824	119.388
819.952	111.950
820.080	110.963
820.208	114.862
820.337	111.500
820.465	113.525
820.593	112.675
820.721	113.888
820.849	113.225
820.977	113.088
821.105	113.200
821.233	110.950
821.362	115.687
821.490	112.825
821.618	110.700
821.746	112.963
821.874	112.900
822.002	114.112
822.130	110.287
822.258	111.013
822.387	115.412
822.515	113.037
822.643	111.088
822.771	111.862
822.899	115.650
823.027	114.450
823.155	111.300
823.283	115.025
823.412	114.425
823.540	112.300
823.668	121.400
823.796	110.500
823.924	114.950
824.052	121.013
824.180	113.013
824.308	111.425
824.437	111.987
824.565	110.850
824.693	115.625
824.821	112.437
824.949	112.737
825.077	115.000
825.205	114.325
825.333	113.350
825.462	113.300
825.590	109.138
825.718	119.213
825.846	112.650
825.974	111.925
826.102	113.750
826.230	114.463
826.358	110.612
826.487	111.388
826.615	109.713
826.743	111.612
826.871	117.437
826.999	110.963
827.127	114.725
827.255	109.600
827.383	108.013
827.512	118.700
827.640	115.650
827.768	112.187
827.896	109.000
828.024	111.925
828.152	111.975
828.280	111.312
828.408	111.750
828.537	109.525
828.665	106.713
828.793	107.925
828.921	109.825
829.049	112.025
829.177	107.450
829.305	107.450
829.433	110.500
829.562	111.138
829.690	112.687
829.818	112.975
829.946	110.862
830.074	110.013
830.202	112.662
830.330	113.888
830.458	118.675
830.587	109.812
830.715	109.500
830.843	108.287
830.971	110.075
831.099	111.475
831.227	108.687
831.355	110.200
831.483	110.675
831.612	111.013
831.740	106.713
831.868	118.575
831.996	109.088
832.124	111.287
832.252	107.912
832.380	108.487
832.508	111.388
832.637	113.862
832.765	109.275
832.893	115.650
833.021	112.638
833.149	110.037
833.277	109.213
833.405	108.100
833.533	107.200
833.662	108.437
833.790	107.937
833.918	110.687
834.046	109.500
834.174	111.588
834.302	108.412
834.430	108.537
834.558	107.575
834.687	109.987
834.815	107.388
834.943	107.700
835.071	108.088
835.199	106.900
835.327	111.162
835.455	109.437
835.583	108.362
835.712	106.937
835.840	110.338
835.968	108.362
836.096	111.362
836.224	111.612
836.352	110.450
836.480	111.112
836.608	114.263
836.737	107.937
836.865	109.437
836.993	106.912
837.121	107.300
837.249	108.500
837.377	110.575
837.505	111.275
837.633	112.000
837.762	109.125
837.890	114.525
838.018	112.775
838.146	107.463
838.274	110.675
838.402	112.150
838.530	104.975
838.658	108.100
838.787	110.388
838.915	110.987
839.043	108.875
839.171	110.963
839.299	107.787
839.427	108.250
839.555	115.350
839.683	111.037
839.812	109.475
839.940	105.263
840.068	106.463
840.196	106.300
840.324	111.412
840.452	109.263
840.580	108.338
840.708	110.400
840.837	109.175
840.965	109.950
841.093	109.900
841.221	110.475
841.349	108.100
841.477	109.450
841.605	106.375
841.733	108.425
841.862	107.963
841.990	110.850
842.118	107.775
842.246	106.125
842.374	105.725
842.502	108.100
842.630	106.900
842.758	109.937
842.887	109.287
843.015	110.037
843.143	110.487
843.271	108.662
843.399	110.775
843.527	108.300
843.655	105.787
843.783	105.250
843.912	108.075
844.040	110.650
844.168	115.862
844.296	114.138
844.424	109.525
844.552	109.263
844.680	107.463
844.808	111.900
844.937	107.150
845.065	106.875
845.193	106.450
845.321	106.987
845.449	107.237
845.577	107.588
845.705	109.725
845.833	108.213
845.962	105.362
846.090	108.275
846.218	111.588
846.346	108.775
846.474	103.937
846.602	103.987
846.730	104.263
846.858	106.500
846.987	103.638
847.115	105.912
847.243	108.888
847.371	109.513
847.499	110.825
847.627	104.200
847.755	104.725
847.883	107.862
848.012	111.112
848.140	109.425
848.268	104.825
848.396	106.888
848.524	105.950
848.652	106.000
848.780	105.937
848.908	107.850
849.037	108.287
849.165	108.900
849.293	108.013
849.421	111.350
849.549	107.213
849.677	109.675
849.805	113.425
849.933	112.588
850.062	109.737
850.190	105.787
850.318	108.500
850.446	107.638
850.574	106.937
850.702	108.013
850.830	107.550
850.958	106.250
851.087	108.800
851.215	114.388
851.343	106.975
851.471	108.250
851.599	108.713
851.727	110.100
851.855	106.912
851.983	106.500
852.112	107.025
852.240	108.037
852.368	106.763
852.496	106.050
852.624	107.237
852.752	106.625
852.880	104.912
853.008	109.850
853.137	113.638
853.265	108.725
853.393	110.925
853.521	110.825
853.649	112.312
853.777	107.737
853.905	106.838
854.033	106.862
854.162	108.463
854.290	106.162
854.418	103.400
854.546	107.537
854.674	107.900
854.802	106.150
854.930	106.550
855.058	105.588
855.187	105.437
855.315	104.300
855.443	105.025
855.571	103.937
855.699	105.450
855.827	107.088
855.955	105.713
856.083	107.338
856.212	106.375
856.340	106.375
856.468	111.525
856.596	111.062
856.724	107.987
856.852	105.125
856.980	107.763
857.108	107.687
857.237	107.713
857.365	109.112
857.493	106.487
857.621	104.987
857.749	105.162
857.877	104.700
858.005	109.213
858.133	107.763
858.262	107.475
858.390	104.775
858.518	104.912
858.646	107.162
858.774	105.513
858.902	107.562
859.030	106.925
859.158	105.050
859.287	107.700
859.415	107.287
859.543	102.250
859.671	108.050
859.799	109.575
859.927	110.825
860.055	106.237
860.183	103.612
860.312	105.787
860.440	107.225
860.568	111.950
860.696	108.213
860.824	117.300
860.952	105.687
861.080	105.338
861.208	105.500
861.337	106.287
861.465	106.687
861.593	110.638
861.721	105.650
861.849	106.112
861.977	106.325
862.105	106.800
862.233	104.162
862.362	105.112
862.490	105.625
862.618	105.000
862.746	106.112
862.874	106.037
863.002	107.912
863.130	108.513
863.258	106.537
863.387	110.325
863.515	106.937
863.643	106.250
863.771	108.338
863.899	105.987
864.027	104.987
864.155	104.200
864.283	104.987
864.412	104.362
864.540	106.000
864.668	104.300
864.796	105.787
864.924	105.963
865.052	105.900
865.180	105.737
865.308	104.575
865.437	106.150
865.565	105.300
865.693	107.987
865.821	106.850
865.949	106.062
866.077	105.362
866.205	105.050
866.333	106.463
866.462	106.875
866.590	107.600
866.718	105.588
866.846	106.838
866.974	107.675
867.102	106.325
867.230	112.300
867.358	107.550
867.487	108.662
867.615	107.000
867.743	109.425
867.871	105.787
867.999	105.888
868.127	105.588
868.255	115.500
868.383	111.125
868.512	106.463
868.640	106.213
868.768	104.838
868.896	106.825
869.024	111.550
869.152	107.525
869.280	106.575
869.408	106.763
869.537	106.900
869.665	105.987
869.793	104.500
869.921	105.612
870.049	106.388
870.177	105.713
870.305	115.362
870.433	106.675
870.562	104.100
870.690	104.513
870.818	103.000
870.946	103.537
871.074	104.025
871.202	105.825
871.330	105.100
871.458	105.312
871.587	104.150
871.715	104.450
871.843	106.825
871.971	107.125
872.099	105.787
872.227	105.888
872.355	105.800
872.483	105.875
872.612	110.550
872.740	107.325
872.868	102.237
872.996	107.487
873.124	105.463
873.252	109.400
873.380	106.100
873.508	107.412
873.637	105.325
873.765	107.463
873.893	108.412
874.021	106.963
874.149	105.062
874.277	107.275
874.405	112.600
874.533	109.575
874.662	105.612
874.790	112.463
874.918	111.588
875.046	108.338
875.174	105.550
875.302	104.150
875.430	104.963
875.558	107.312
875.687	108.062
875.815	107.250
875.943	106.812
876.071	107.400
876.199	106.575
876.327	110.037
876.455	108.400
876.583	105.138
876.712	105.175
876.840	109.263
876.968	104.475
877.096	104.537
877.224	102.362
877.352	104.475
877.480	104.225
877.608	106.537
877.737	104.975
877.865	105.838
877.993	108.487
878.121	107.225
878.249	106.375
878.377	105.312
878.505	105.250
878.633	105.062
878.762	106.625
878.890	108.800
879.018	107.888
879.146	107.800
879.274	105.250
879.402	107.075
879.530	108.612
879.658	109.763
879.787	108.475
879.915	105.175
880.043	106.612
880.171	105.925
880.299	104.888
880.427	106.425
880.555	108.338
880.683	107.325
880.812	105.225
880.940	105.237
881.068	106.287
881.196	104.650
881.324	105.775
881.452	106.225
881.580	105.312
881.708	106.187
881.837	105.875
881.965	106.125
882.093	105.037
882.221	102.937
882.349	106.662
882.477	106.037
882.605	112.812
882.733	105.475
882.862	106.175
882.990	104.750
883.118	105.638
883.246	106.537
883.374	108.525
883.502	105.850
883.630	103.437
883.758	105.300
883.887	104.162
884.015	104.812
884.143	106.425
884.271	106.963
884.399	106.850
884.527	106.312
884.655	105.375
884.783	106.300
884.912	105.937
885.040	103.713
885.168	106.338
885.296	104.763
885.424	105.213
885.552	107.912
885.680	105.825
885.808	106.062
885.937	111.525
886.065	111.463
886.193	106.775
886.321	106.263
886.449	106.350
886.577	105.062
886.705	103.825
886.833	103.900
886.962	103.550
887.090	106.463
887.218	104.162
887.346	102.987
887.474	109.513
887.602	108.225
887.730	103.925
887.858	107.162
887.987	107.513
888.115	113.500
888.243	110.037
888.371	105.937
888.499	107.100
888.627	106.388
888.755	106.412
888.883	104.263
889.012	104.025
889.140	106.000
889.268	114.175
889.396	109.575
889.524	105.250
889.652	104.525
889.780	105.987
889.908	107.888
890.037	106.362
890.165	104.900
890.293	108.612
890.421	106.463
890.549	109.850
890.677	111.725
890.805	104.925
890.933	103.800
891.062	104.125
891.190	107.487
891.318	109.150
891.446	107.775
891.574	104.100
891.702	104.350
891.830	105.562
891.958	108.187
892.087	111.650
892.215	108.138
892.343	106.737
892.471	106.513
892.599	108.675
892.727	111.237
892.855	107.763
892.983	110.525
893.112	107.375
893.240	107.800
893.368	108.138
893.496	105.588
893.624	107.937
893.752	107.062
893.880	106.937
894.008	108.400
894.137	108.175
894.265	107.275
894.393	109.963
894.521	109.525
894.649	109.400
894.777	105.475
894.905	105.487
895.033	111.713
895.162	107.987
895.290	107.200
895.418	108.513
895.546	111.662
895.674	111.812
895.802	107.463
895.930	108.013
896.058	104.800
896.187	105.250
896.315	107.425
896.443	111.713
896.571	109.138
896.699	106.487
896.827	108.638
896.955	108.062
897.083	109.537
897.212	106.987
897.340	103.513
897.468	105.138
897.596	106.125
897.724	107.662
897.852	116.412
897.980	108.975
898.108	107.000
898.237	105.100
898.365	105.713
898.493	106.187
898.621	111.175
898.749	106.075
898.877	105.900
899.005	107.412
899.133	107.138
899.262	106.025
899.390	106.450
899.518	107.287
899.646	106.963
899.774	114.475
899.902	119.713
900.030	107.263
900.158	108.550
900.287	107.650
900.415	106.000
900.543	105.650
900.671	111.213
900.799	110.100
900.927	112.350
901.055	107.112
901.183	106.263
901.312	106.138
901.440	110.213
901.568	110.812
901.696	107.787
901.824	110.125
901.952	113.812
902.080	106.888
902.208	109.400
902.337	108.838
902.465	109.625
902.593	110.937
902.721	109.213
902.849	110.525
902.977	110.225
903.105	115.200
903.233	115.537
903.362	111.138
903.490	110.763
903.618	108.975
903.746	110.600
903.874	110.900
904.002	108.325
904.130	111.375
904.258	109.450
904.387	108.400
904.515	106.150
904.643	107.100
904.771	107.175
904.899	108.612
905.027	107.937
905.155	105.925
905.283	108.700
905.412	114.987
905.540	110.225
905.668	106.937
905.796	107.050
905.924	106.862
906.052	108.638
906.180	108.463
906.308	112.375
906.437	113.375
906.565	111.888
906.693	108.500
906.821	106.088
906.949	106.013
907.077	109.575
907.205	112.412
907.333	111.375
907.462	108.287
907.590	109.975
907.718	110.088
907.846	109.300
907.974	108.025
908.102	108.687
908.230	112.612
908.358	114.500
908.487	109.850
908.615	109.463
908.743	111.713
908.871	110.125
908.999	110.575
909.127	112.850
909.255	108.088
909.383	108.750
909.512	109.175
909.640	108.062
909.768	111.338
909.896	123.075
910.024	112.400
910.152	111.700
910.280	119.737
910.408	109.687
910.537	111.000
910.665	111.975
910.793	112.100
910.921	114.125
911.049	111.963
911.177	108.975
911.305	113.125
911.433	112.975
911.562	109.475
911.690	112.275
911.818	120.950
911.946	122.437
912.074	114.750
912.202	113.513
912.330	111.875
912.458	113.237
912.587	117.350
912.715	113.125
912.843	108.225
912.971	111.287
913.099	113.125
913.227	116.362
913.355	111.838
913.483	116.237
913.612	113.375
913.740	126.838
913.868	114.112
