sample2_PS_at_750.00nm_cut_at_1008.00Y_01.dat
15.05.2023
10:55:45
cut middle at Y: 1008.00
top cursor: 1048 down cursor: 968 mean of: 80 lines , 2560 datapoints
wavelength(nm)	intensity[arb. units]
585.996	1364.525
586.124	1340.825
586.252	1325.250
586.380	1326.513
586.508	1341.250
586.637	1336.312
586.765	1334.612
586.893	1345.312
587.021	1362.937
587.149	1361.950
587.277	1348.425
587.405	1362.575
587.533	1368.013
587.662	1371.388
587.790	1381.525
587.918	1384.287
588.046	1387.200
588.174	1378.000
588.302	1408.400
588.430	1390.200
588.558	1394.888
588.687	1404.175
588.815	1425.812
588.943	1410.450
589.071	1412.487
589.199	1424.500
589.327	1411.775
589.455	1403.575
589.583	1415.625
589.712	1438.437
589.840	1423.100
589.968	1416.862
590.096	1424.562
590.224	1427.737
590.352	1433.725
590.480	1432.875
590.608	1442.112
590.737	1430.237
590.865	1444.050
590.993	1434.287
591.121	1454.638
591.249	1459.025
591.377	1447.062
591.505	1450.638
591.633	1458.388
591.762	1473.650
591.890	1470.150
592.018	1468.662
592.146	1478.900
592.274	1495.412
592.402	1478.650
592.530	1482.562
592.658	1492.200
592.787	1497.700
592.915	1487.000
593.043	1499.625
593.171	1499.675
593.299	1521.375
593.427	1514.662
593.555	1520.425
593.683	1514.312
593.812	1513.725
593.940	1524.487
594.068	1530.425
594.196	1584.850
594.324	1536.100
594.452	1564.862
594.580	1590.037
594.708	1564.612
594.837	1565.300
594.965	1579.100
595.093	1589.838
595.221	1598.088
595.349	1603.312
595.477	1603.150
595.605	1594.588
595.733	1639.125
595.862	1620.850
595.990	1624.150
596.118	1640.950
596.246	1634.162
596.374	1660.513
596.502	1665.850
596.630	1665.612
596.758	1668.638
596.887	1675.675
597.015	1692.900
597.143	1668.612
597.271	1689.037
597.399	1700.675
597.527	1702.112
597.655	1698.325
597.783	1717.487
597.912	1702.650
598.040	1715.425
598.168	1699.662
598.296	1722.312
598.424	1710.138
598.552	1715.450
598.680	1709.200
598.808	1703.412
598.937	1735.338
599.065	1729.513
599.193	1712.213
599.321	1701.963
599.449	1728.737
599.577	1733.800
599.705	1728.888
599.833	1748.600
599.962	1732.662
600.090	1717.312
600.218	1742.963
600.346	1753.925
600.474	1756.213
600.602	1765.138
600.730	1753.800
600.858	1771.525
600.987	1767.213
601.115	1768.000
601.243	1767.375
601.371	1777.625
601.499	1789.037
601.627	1787.475
601.755	1804.350
601.883	1802.612
602.012	1821.937
602.140	1803.612
602.268	1826.450
602.396	1835.812
602.524	1840.200
602.652	1845.112
602.780	1842.425
602.908	1865.825
603.037	1868.350
603.165	1859.162
603.293	1907.400
603.421	1905.350
603.549	1895.862
603.677	1943.013
603.805	1915.263
603.933	1936.338
604.062	1924.838
604.190	1968.287
604.318	1948.037
604.446	1982.338
604.574	1976.500
604.702	1988.200
604.830	1990.013
604.958	2023.150
605.087	2033.325
605.215	2030.562
605.343	2042.600
605.471	2037.963
605.599	2066.187
605.727	2066.800
605.855	2070.275
605.983	2071.812
606.112	2095.863
606.240	2105.200
606.368	2126.887
606.496	2124.525
606.624	2108.537
606.752	2129.975
606.880	2156.937
607.008	2179.250
607.137	2188.037
607.265	2156.500
607.393	2170.625
607.521	2192.200
607.649	2165.525
607.777	2165.713
607.905	2176.012
608.033	2188.463
608.162	2178.662
608.290	2196.662
608.418	2209.200
608.546	2209.400
608.674	2227.650
608.802	2197.537
608.930	2216.637
609.058	2208.025
609.187	2227.550
609.315	2230.613
609.443	2222.887
609.571	2248.375
609.699	2228.187
609.827	2231.125
609.955	2255.700
610.083	2246.687
610.212	2231.575
610.340	2237.488
610.468	2248.937
610.596	2254.650
610.724	2264.200
610.852	2251.662
610.980	2259.675
611.108	2292.250
611.237	2245.262
611.365	2270.338
611.493	2269.637
611.621	2293.588
611.749	2285.537
611.877	2311.150
612.005	2289.037
612.133	2301.662
612.262	2302.850
612.390	2309.750
612.518	2350.162
612.646	2357.738
612.774	2315.687
612.902	2347.500
613.030	2340.387
613.158	2384.238
613.287	2385.037
613.415	2368.550
613.543	2356.088
613.671	2374.912
613.799	2404.900
613.927	2390.550
614.055	2398.325
614.183	2462.600
614.312	2403.588
614.440	2450.575
614.568	2435.225
614.696	2437.713
614.824	2516.812
614.952	2448.113
615.080	2450.200
615.208	2475.200
615.337	2485.525
615.465	2488.863
615.593	2516.887
615.721	2527.437
615.849	2528.975
615.977	2544.338
616.105	2567.925
616.233	2537.312
616.362	2594.825
616.490	2542.400
616.618	2552.863
616.746	2590.525
616.874	2622.963
617.002	2602.475
617.130	2632.300
617.258	2682.750
617.387	2628.137
617.515	2602.800
617.643	2635.425
617.771	2653.912
617.899	2671.550
618.027	2642.113
618.155	2714.000
618.283	2638.488
618.412	2682.975
618.540	2728.037
618.668	2706.025
618.796	2687.037
618.924	2771.975
619.052	2680.988
619.180	2714.375
619.308	2707.750
619.437	2730.000
619.565	2719.675
619.693	2706.950
619.821	2739.750
619.949	2718.075
620.077	2743.950
620.205	2742.037
620.333	2767.812
620.462	2771.088
620.590	2820.238
620.718	2749.425
620.846	2822.988
620.974	2848.463
621.102	2783.637
621.230	2770.925
621.358	2876.675
621.487	2763.187
621.615	2802.338
621.743	2807.050
621.871	2813.662
621.999	2863.050
622.127	2824.950
622.255	2814.800
622.383	2816.450
622.512	2811.925
622.640	2948.300
622.768	2812.975
622.896	2826.963
623.024	2839.200
623.152	2913.637
623.280	2870.812
623.408	2826.200
623.537	2859.000
623.665	2837.887
623.793	2877.963
623.921	2839.988
624.049	2823.088
624.177	2851.338
624.305	2894.100
624.433	2888.588
624.562	2861.850
624.690	2889.325
624.818	2915.537
624.946	3022.838
625.074	2916.637
625.202	2884.675
625.330	2856.050
625.458	2930.262
625.587	2884.312
625.715	2944.500
625.843	3019.412
625.971	2920.162
626.099	2932.625
626.227	2895.037
626.355	2889.925
626.483	3003.937
626.612	2896.400
626.740	2880.437
626.868	2958.637
626.996	2906.687
627.124	2917.175
627.252	2909.838
627.380	2951.825
627.508	2919.312
627.637	2924.625
627.765	2945.662
627.893	2961.825
628.021	2938.838
628.149	2967.150
628.277	2985.988
628.405	3038.525
628.533	2928.213
628.662	3019.488
628.790	2967.950
628.918	2980.213
629.046	2980.838
629.174	2984.262
629.302	3102.425
629.430	3000.062
629.558	3025.113
629.687	3028.912
629.815	3033.900
629.943	3070.062
630.071	3047.700
630.199	3053.475
630.327	3061.113
630.455	3027.713
630.583	3148.662
630.712	3096.963
630.840	3080.437
630.968	3147.963
631.096	3069.363
631.224	3061.450
631.352	3083.287
631.480	3130.637
631.608	3091.200
631.737	3230.725
631.865	3286.687
631.993	3109.262
632.121	3257.225
632.249	3229.025
632.377	3220.675
632.505	3221.925
632.633	3128.137
632.762	3232.512
632.890	3296.800
633.018	3168.463
633.146	3204.613
633.274	3219.588
633.402	3201.250
633.530	3168.187
633.658	3362.037
633.787	3177.137
633.915	3270.062
634.043	3218.887
634.171	3213.062
634.299	3246.450
634.427	3323.988
634.555	3270.175
634.683	3221.988
634.812	3224.525
634.940	3243.787
635.068	3186.925
635.196	3252.512
635.324	3239.875
635.452	3319.662
635.580	3202.537
635.708	3223.162
635.837	3288.937
635.965	3259.500
636.093	3265.662
636.221	3203.137
636.349	3307.662
636.477	3166.800
636.605	3377.912
636.733	3188.950
636.862	3185.750
636.990	3215.738
637.118	3301.100
637.246	3234.100
637.374	3197.937
637.502	3186.975
637.630	3163.738
637.758	3209.600
637.887	3168.275
638.015	3162.037
638.143	3162.250
638.271	3183.775
638.399	3156.812
638.527	3167.625
638.655	3147.050
638.783	3314.500
638.912	3202.700
639.040	3174.575
639.168	3212.100
639.296	3145.037
639.424	3285.637
639.552	3143.800
639.680	3178.725
639.808	3196.400
639.937	3139.200
640.065	3140.912
640.193	3246.437
640.321	3129.662
640.449	3207.463
640.577	3248.900
640.705	3145.113
640.833	3281.525
640.962	3145.338
641.090	3142.238
641.218	3130.262
641.346	3159.412
641.474	3188.262
641.602	3145.113
641.730	3150.075
641.858	3156.775
641.987	3198.812
642.115	3144.338
642.243	3196.275
642.371	3185.500
642.499	3193.588
642.627	3196.675
642.755	3255.775
642.883	3245.575
643.012	3195.937
643.140	3135.275
643.268	3173.787
643.396	3201.200
643.524	3330.213
643.652	3184.400
643.780	3208.025
643.908	3170.338
644.037	3330.738
644.165	3191.312
644.293	3215.787
644.421	3178.675
644.549	3274.463
644.677	3189.900
644.805	3275.713
644.933	3209.300
645.062	3200.050
645.190	3235.900
645.318	3308.225
645.446	3252.963
645.574	3237.650
645.702	3194.537
645.830	3416.925
645.958	3220.725
646.087	3410.500
646.215	3212.000
646.343	3432.575
646.471	3297.325
646.599	3307.512
646.727	3234.713
646.855	3256.588
646.983	3301.637
647.112	3225.562
647.240	3416.588
647.368	3254.287
647.496	3321.850
647.624	3217.012
647.752	3216.562
647.880	3223.500
648.008	3256.213
648.137	3231.475
648.265	3213.812
648.393	3236.512
648.521	3247.850
648.649	3252.875
648.777	3238.025
648.905	3207.838
649.033	3259.650
649.162	3245.400
649.290	3210.713
649.418	3262.613
649.546	3248.800
649.674	3295.425
649.802	3238.412
649.930	3394.863
650.058	3183.200
650.187	3219.762
650.315	3174.687
650.443	3275.287
650.571	3203.650
650.699	3178.863
650.827	3151.050
650.955	3216.113
651.083	3204.250
651.212	3250.512
651.340	3256.787
651.468	3196.912
651.596	3164.537
651.724	3153.588
651.852	3174.387
651.980	3145.025
652.108	3273.675
652.237	3177.412
652.365	3256.975
652.493	3110.012
652.621	3130.225
652.749	3238.863
652.877	3087.412
653.005	3165.225
653.133	3114.725
653.262	3196.000
653.390	3096.963
653.518	3229.175
653.646	3136.975
653.774	3302.963
653.902	3144.012
654.030	3073.537
654.158	3140.887
654.287	3091.613
654.415	3113.912
654.543	3094.800
654.671	3184.350
654.799	3096.650
654.927	3053.838
655.055	3050.037
655.183	3113.700
655.312	3081.312
655.440	3105.912
655.568	3034.775
655.696	3167.250
655.824	3165.437
655.952	3069.675
656.080	3041.075
656.208	3208.787
656.337	3065.537
656.465	3051.525
656.593	3100.625
656.721	3061.025
656.849	3124.575
656.977	3051.975
657.105	3051.812
657.233	3004.637
657.362	3016.062
657.490	3027.238
657.618	3035.550
657.746	3007.875
657.874	2979.475
658.002	2953.562
658.130	3016.325
658.258	2969.738
658.387	2994.312
658.515	2942.650
658.643	3020.338
658.771	2978.350
658.899	2992.062
659.027	2989.562
659.155	2977.375
659.283	3188.100
659.412	2976.575
659.540	3085.562
659.668	2945.812
659.796	3006.037
659.924	3060.175
660.052	2943.675
660.180	2994.725
660.308	2975.613
660.437	2956.588
660.565	2949.062
660.693	2962.975
660.821	2925.437
660.949	2953.187
661.077	2915.400
661.205	2929.912
661.333	2884.887
661.462	3031.588
661.590	2961.988
661.718	3102.600
661.846	3008.075
661.974	3080.875
662.102	2942.175
662.230	2969.287
662.358	2916.950
662.487	2915.975
662.615	2883.625
662.743	2877.187
662.871	2877.988
662.999	2895.338
663.127	2885.400
663.255	3013.300
663.383	3001.412
663.512	2859.425
663.640	2900.963
663.768	2861.300
663.896	2903.887
664.024	2934.037
664.152	2875.625
664.280	2911.050
664.408	2884.425
664.537	2929.512
664.665	2810.988
664.793	2827.238
664.921	2839.775
665.049	2841.750
665.177	2868.963
665.305	2852.575
665.433	2869.113
665.562	2824.575
665.690	2865.963
665.818	3050.900
665.946	2863.225
666.074	2827.450
666.202	2825.800
666.330	2874.838
666.458	2834.650
666.587	2784.187
666.715	2804.525
666.843	2795.350
666.971	2789.512
667.099	2840.825
667.227	2799.713
667.355	2835.713
667.483	2811.713
667.612	2821.500
667.740	2811.475
667.868	2879.488
667.996	2812.488
668.124	2774.937
668.252	2775.113
668.380	2779.700
668.508	2791.988
668.637	2797.650
668.765	2754.963
668.893	2815.100
669.021	2755.512
669.149	2804.963
669.277	2806.687
669.405	2763.512
669.533	2761.113
669.662	2989.412
669.790	2741.537
669.918	2826.150
670.046	2738.775
670.174	2829.512
670.302	2808.025
670.430	2756.912
670.558	2790.113
670.687	2718.113
670.815	2890.825
670.943	2687.488
671.071	2725.050
671.199	2745.275
671.327	2703.550
671.455	2730.762
671.583	2707.675
671.712	2825.950
671.840	2700.512
671.968	2676.637
672.096	2693.512
672.224	2654.200
672.352	2780.912
672.480	2662.225
672.608	2641.412
672.737	2648.437
672.865	2757.662
672.993	2633.975
673.121	2633.838
673.249	2616.437
673.377	2618.213
673.505	2610.113
673.633	2610.600
673.762	2582.488
673.890	2608.213
674.018	2693.262
674.146	2606.825
674.274	2592.437
674.402	2670.325
674.530	2571.950
674.658	2578.787
674.787	2548.325
674.915	2543.887
675.043	2568.012
675.171	2564.312
675.299	2533.562
675.427	2528.950
675.555	2517.725
675.683	2521.400
675.812	2504.550
675.940	2497.088
676.068	2533.800
676.196	2484.475
676.324	2512.037
676.452	2490.225
676.580	2487.250
676.708	2482.525
676.837	2516.488
676.965	2445.812
677.093	2469.625
677.221	2467.287
677.349	2439.562
677.477	2458.700
677.605	2423.575
677.733	2454.075
677.862	2408.250
677.990	2415.238
678.118	2411.137
678.246	2403.300
678.374	2376.825
678.502	2373.725
678.630	2374.500
678.758	2369.750
678.887	2372.162
679.015	2376.988
679.143	2331.238
679.271	2355.762
679.399	2351.187
679.527	2320.738
679.655	2332.937
679.783	2343.050
679.912	2325.950
680.040	2327.287
680.168	2318.125
680.296	2277.562
680.424	2280.175
680.552	2290.100
680.680	2288.613
680.808	2270.750
680.937	2289.713
681.065	2272.588
681.193	2263.125
681.321	2285.175
681.449	2265.363
681.577	2253.037
681.705	2231.975
681.833	2221.463
681.962	2228.187
682.090	2242.150
682.218	2217.800
682.346	2214.175
682.474	2218.550
682.602	2219.725
682.730	2201.738
682.858	2180.200
682.987	2195.225
683.115	2175.912
683.243	2176.475
683.371	2183.787
683.499	2167.488
683.627	2181.988
683.755	2151.225
683.883	2161.787
684.012	2140.975
684.140	2136.363
684.268	2132.437
684.396	2145.213
684.524	2126.912
684.652	2150.125
684.780	2131.787
684.908	2112.537
685.037	2110.250
685.165	2110.525
685.293	2104.588
685.421	2091.012
685.549	2086.150
685.677	2095.887
685.805	2079.850
685.933	2077.488
686.062	2060.912
686.190	2075.100
686.318	2091.575
686.446	2071.687
686.574	2058.425
686.702	2073.512
686.830	2068.000
686.958	2033.275
687.087	2057.075
687.215	2029.775
687.343	2022.300
687.471	2026.737
687.599	2003.412
687.727	1994.000
687.855	2030.450
687.983	2015.050
688.112	2003.862
688.240	1968.150
688.368	1993.213
688.496	2001.562
688.624	1987.162
688.752	1977.575
688.880	1968.150
689.008	1969.075
689.137	1951.650
689.265	1966.400
689.393	1936.763
689.521	1946.850
689.649	1949.975
689.777	1940.275
689.905	1937.925
690.033	1928.025
690.162	1916.225
690.290	1898.825
690.418	1900.388
690.546	1928.100
690.674	1919.187
690.802	1875.075
690.930	1876.487
691.058	1876.187
691.187	1857.588
691.315	1892.025
691.443	1869.850
691.571	1830.450
691.699	1827.388
691.827	1842.287
691.955	1831.350
692.083	1831.138
692.212	1815.638
692.340	1811.162
692.468	1813.263
692.596	1803.487
692.724	1817.675
692.852	1780.263
692.980	1788.912
693.108	1773.525
693.237	1770.362
693.365	1753.500
693.493	1765.275
693.621	1732.763
693.749	1735.088
693.877	1725.425
694.005	1727.875
694.133	1744.750
694.262	1701.838
694.390	1705.888
694.518	1681.350
694.646	1675.687
694.774	1687.925
694.902	1680.450
695.030	1699.450
695.158	1651.963
695.287	1669.287
695.415	1648.125
695.543	1657.737
695.671	1641.850
695.799	1616.000
695.927	1630.975
696.055	1624.062
696.183	1626.013
696.312	1612.513
696.440	1577.612
696.568	1599.713
696.696	1575.500
696.824	1582.263
696.952	1570.513
697.080	1547.537
697.208	1561.763
697.337	1541.100
697.465	1539.937
697.593	1541.050
697.721	1535.187
697.849	1523.338
697.977	1519.350
698.105	1521.687
698.233	1519.437
698.362	1503.787
698.490	1479.675
698.618	1493.825
698.746	1478.325
698.874	1482.000
699.002	1494.000
699.130	1469.838
699.258	1474.362
699.387	1445.013
699.515	1444.437
699.643	1456.200
699.771	1439.725
699.899	1435.838
700.027	1424.662
700.155	1424.463
700.283	1427.675
700.412	1407.075
700.540	1401.650
700.668	1396.112
700.796	1397.600
700.924	1380.987
701.052	1375.838
701.180	1378.312
701.308	1371.662
701.437	1354.400
701.565	1374.312
701.693	1353.787
701.821	1371.088
701.949	1347.763
702.077	1332.263
702.205	1332.350
702.333	1325.350
702.462	1328.787
702.590	1299.787
702.718	1311.150
702.846	1295.675
702.974	1309.300
703.102	1284.250
703.230	1284.638
703.358	1278.275
703.487	1266.937
703.615	1271.225
703.743	1244.263
703.871	1250.050
703.999	1238.437
704.127	1226.700
704.255	1230.950
704.383	1245.850
704.512	1223.350
704.640	1218.937
704.768	1205.325
704.896	1193.175
705.024	1205.838
705.152	1194.638
705.280	1185.263
705.408	1178.425
705.537	1179.100
705.665	1176.112
705.793	1171.675
705.921	1159.213
706.049	1177.325
706.177	1149.350
706.305	1139.638
706.433	1129.787
706.562	1126.912
706.690	1127.763
706.818	1120.250
706.946	1106.037
707.074	1106.375
707.202	1107.937
707.330	1100.287
707.458	1096.213
707.587	1083.325
707.715	1081.187
707.843	1077.513
707.971	1094.187
708.099	1074.713
708.227	1063.575
708.355	1066.925
708.483	1058.350
708.612	1044.912
708.740	1048.300
708.868	1031.112
708.996	1034.112
709.124	1040.662
709.252	1026.450
709.380	1015.962
709.508	1001.587
709.637	1007.525
709.765	1001.062
709.893	1011.475
710.021	1001.475
710.149	987.050
710.277	988.212
710.405	985.175
710.533	968.050
710.662	976.263
710.790	977.150
710.918	968.225
711.046	960.200
711.174	958.950
711.302	954.487
711.430	938.737
711.558	945.987
711.687	934.263
711.815	929.462
711.943	928.975
712.071	934.237
712.199	920.850
712.327	924.612
712.455	912.225
712.583	919.888
712.712	927.587
712.840	915.163
712.968	902.100
713.096	892.975
713.224	896.475
713.352	885.913
713.480	884.812
713.608	874.312
713.737	872.388
713.865	867.138
713.993	861.500
714.121	859.138
714.249	857.487
714.377	852.625
714.505	860.538
714.633	847.987
714.762	831.212
714.890	848.050
715.018	832.763
715.146	834.575
715.274	825.062
715.402	818.913
715.530	830.587
715.658	818.275
715.787	817.562
715.915	809.187
716.043	793.950
716.171	809.638
716.299	813.775
716.427	793.962
716.555	801.712
716.683	789.000
716.812	786.138
716.940	790.675
717.068	774.050
717.196	783.263
717.324	780.975
717.452	768.575
717.580	762.263
717.708	757.812
717.837	766.112
717.965	756.587
718.093	751.175
718.221	751.562
718.349	739.000
718.477	746.862
718.605	737.212
718.733	742.163
718.862	725.200
718.990	722.112
719.118	723.112
719.246	717.650
719.374	723.650
719.502	719.237
719.630	722.525
719.758	711.575
719.887	699.462
720.015	716.650
720.143	699.337
720.271	702.075
720.399	691.888
720.527	697.925
720.655	684.437
720.783	690.312
720.912	686.200
721.040	695.087
721.168	683.775
721.296	677.425
721.424	680.288
721.552	661.362
721.680	666.038
721.808	674.000
721.937	665.050
722.065	655.750
722.193	650.737
722.321	655.725
722.449	644.300
722.577	640.475
722.705	637.587
722.833	636.900
722.962	640.712
723.090	630.138
723.218	618.362
723.346	623.187
723.474	619.850
723.602	617.263
723.730	612.163
723.858	621.975
723.987	622.700
724.115	607.712
724.243	604.600
724.371	603.275
724.499	608.875
724.627	601.175
724.755	603.362
724.883	597.187
725.012	590.550
725.140	583.413
725.268	584.725
725.396	581.975
725.524	573.687
725.652	577.187
725.780	569.362
725.908	572.100
726.037	570.875
726.165	557.850
726.293	548.763
726.421	557.487
726.549	562.013
726.677	550.175
726.805	549.638
726.933	556.587
727.062	547.312
727.190	536.900
727.318	537.812
727.446	540.075
727.574	543.237
727.702	534.362
727.830	528.562
727.958	530.050
728.087	519.250
728.215	526.163
728.343	517.425
728.471	517.862
728.599	514.475
728.727	514.138
728.855	512.837
728.983	499.663
729.112	500.675
729.240	506.312
729.368	501.538
729.496	499.425
729.624	502.762
729.752	499.075
729.880	492.775
730.008	494.887
730.137	487.375
730.265	488.262
730.393	485.800
730.521	480.113
730.649	489.413
730.777	478.100
730.905	475.163
731.033	474.962
731.162	475.500
731.290	473.475
731.418	464.962
731.546	481.962
731.674	460.512
731.802	460.650
731.930	464.075
732.058	459.288
732.187	451.525
732.315	447.175
732.443	456.850
732.571	449.312
732.699	444.875
732.827	446.962
732.955	442.038
733.083	434.525
733.212	434.587
733.340	433.538
733.468	431.738
733.596	437.212
733.724	429.375
733.852	433.350
733.980	417.050
734.108	424.062
734.237	430.250
734.365	416.137
734.493	431.187
734.621	415.038
734.749	428.562
734.877	414.163
735.005	407.712
735.133	410.350
735.262	410.562
735.390	406.113
735.518	411.450
735.646	399.913
735.774	400.975
735.902	398.500
736.030	397.012
736.158	404.025
736.287	391.700
736.415	394.350
736.543	390.650
736.671	391.050
736.799	393.262
736.927	394.750
737.055	381.100
737.183	381.363
737.312	384.100
737.440	388.450
737.568	394.600
737.696	381.712
737.824	385.775
737.952	385.413
738.080	380.962
738.208	381.113
738.337	375.113
738.465	377.975
738.593	362.863
738.721	360.925
738.849	363.387
738.977	371.488
739.105	366.988
739.233	356.812
739.362	357.462
739.490	350.050
739.618	357.712
739.746	352.462
739.874	368.113
740.002	350.825
740.130	348.775
740.258	354.337
740.387	348.212
740.515	338.250
740.643	347.500
740.771	353.012
740.899	346.462
741.027	336.675
741.155	343.937
741.283	335.225
741.412	336.150
741.540	333.187
741.668	330.863
741.796	334.687
741.924	338.650
742.052	331.988
742.180	326.650
742.308	329.788
742.437	330.750
742.565	328.725
742.693	331.300
742.821	321.812
742.949	322.462
743.077	328.575
743.205	322.437
743.333	327.038
743.462	317.712
743.590	312.788
743.718	312.200
743.846	314.937
743.974	307.812
744.102	304.712
744.230	309.175
744.358	306.525
744.487	316.962
744.615	309.575
744.743	308.525
744.871	303.950
744.999	306.275
745.127	301.325
745.255	296.100
745.383	301.875
745.512	306.712
745.640	293.337
745.768	293.163
745.896	296.538
746.024	292.675
746.152	289.700
746.280	296.575
746.408	298.325
746.537	294.275
746.665	294.212
746.793	285.925
746.921	283.613
747.049	287.700
747.177	293.238
747.305	281.275
747.433	286.488
747.562	284.012
747.690	278.000
747.818	280.175
747.946	274.275
748.074	297.738
748.202	281.538
748.330	273.000
748.458	278.850
748.587	275.750
748.715	265.238
748.843	274.575
748.971	268.512
749.099	274.000
749.227	269.225
749.355	261.425
749.483	265.187
749.612	261.788
749.740	258.675
749.868	264.325
749.996	261.887
750.124	262.863
750.252	263.387
750.380	264.250
750.508	263.212
750.637	257.825
750.765	258.725
750.893	254.787
751.021	259.400
751.149	256.887
751.277	258.663
751.405	259.850
751.533	260.913
751.662	256.200
751.790	265.337
751.918	259.100
752.046	244.925
752.174	245.937
752.302	256.600
752.430	248.887
752.558	246.175
752.687	246.750
752.815	255.150
752.943	244.912
753.071	242.400
753.199	238.887
753.327	253.075
753.455	234.363
753.583	233.387
753.712	239.912
753.840	235.050
753.968	232.613
754.096	231.662
754.224	239.113
754.352	227.675
754.480	230.312
754.608	227.575
754.737	233.900
754.865	227.925
754.993	233.075
755.121	221.738
755.249	234.988
755.377	222.875
755.505	225.338
755.633	240.113
755.762	221.175
755.890	234.425
756.018	230.575
756.146	221.275
756.274	226.687
756.402	215.225
756.530	219.762
756.658	232.463
756.787	214.950
756.915	209.950
757.043	220.562
757.171	221.287
757.299	211.238
757.427	215.475
757.555	221.787
757.683	219.963
757.812	214.575
757.940	218.137
758.068	213.725
758.196	206.375
758.324	208.588
758.452	210.037
758.580	208.988
758.708	211.350
758.837	205.662
758.965	218.387
759.093	203.812
759.221	204.213
759.349	209.787
759.477	197.287
759.605	200.937
759.733	201.625
759.862	206.150
759.990	202.287
760.118	204.838
760.246	195.037
760.374	202.875
760.502	200.200
760.630	197.363
760.758	190.037
760.887	196.613
761.015	191.088
761.143	195.187
761.271	195.250
761.399	193.375
761.527	193.200
761.655	193.238
761.783	190.787
761.912	186.412
762.040	192.113
762.168	189.512
762.296	189.637
762.424	183.325
762.552	186.588
762.680	190.262
762.808	188.025
762.937	192.850
763.065	191.800
763.193	193.275
763.321	186.488
763.449	179.463
763.577	184.100
763.705	189.625
763.833	207.213
763.962	180.600
764.090	180.412
764.218	185.137
764.346	184.113
764.474	176.300
764.602	183.213
764.730	180.062
764.858	177.287
764.987	180.650
765.115	186.162
765.243	186.287
765.371	173.725
765.499	170.687
765.627	175.512
765.755	174.238
765.883	170.550
766.012	173.537
766.140	172.600
766.268	174.463
766.396	173.512
766.524	169.213
766.652	170.700
766.780	169.437
766.908	172.800
767.037	171.262
767.165	169.463
767.293	177.950
767.421	166.988
767.549	167.150
767.677	174.637
767.805	163.225
767.933	169.387
768.062	168.350
768.190	167.262
768.318	164.575
768.446	177.338
768.574	172.812
768.702	173.525
768.830	166.275
768.958	161.775
769.087	169.387
769.215	166.150
769.343	161.137
769.471	168.363
769.599	167.100
769.727	160.725
769.855	163.062
769.983	160.625
770.112	164.238
770.240	166.488
770.368	161.912
770.496	158.937
770.624	156.238
770.752	166.412
770.880	174.875
771.008	157.812
771.137	161.412
771.265	160.762
771.393	159.787
771.521	161.650
771.649	154.062
771.777	154.363
771.905	157.450
772.033	157.338
772.162	160.887
772.290	160.812
772.418	167.588
772.546	155.325
772.674	156.037
772.802	159.463
772.930	157.550
773.058	154.287
773.187	155.713
773.315	156.812
773.443	154.700
773.571	152.925
773.699	151.425
773.827	153.213
773.955	157.300
774.083	167.800
774.212	149.150
774.340	151.012
774.468	153.300
774.596	153.838
774.724	157.425
774.852	146.775
774.980	151.463
775.108	150.050
775.237	146.950
775.365	146.900
775.493	149.200
775.621	145.925
775.749	147.613
775.877	151.425
776.005	146.975
776.133	151.425
776.262	147.225
776.390	143.012
776.518	155.550
776.646	143.812
776.774	143.450
776.902	147.475
777.030	146.025
777.158	148.000
777.287	149.800
777.415	148.725
777.543	141.450
777.671	143.287
777.799	140.300
777.927	147.088
778.055	143.537
778.183	146.050
778.312	135.625
778.440	140.925
778.568	143.887
778.696	139.925
778.824	145.175
778.952	145.200
779.080	141.625
779.208	147.912
779.337	144.437
779.465	146.537
779.593	142.338
779.721	146.088
779.849	140.363
779.977	141.662
780.105	137.600
780.233	140.475
780.362	147.137
780.490	140.588
780.618	139.312
780.746	139.150
780.874	138.600
781.002	137.937
781.130	139.187
781.258	137.750
781.387	144.738
781.515	138.925
781.643	138.162
781.771	144.137
781.899	139.988
782.027	136.500
782.155	137.800
782.283	138.012
782.412	136.762
782.540	140.700
782.668	139.937
782.796	131.162
782.924	135.900
783.052	131.425
783.180	139.588
783.308	130.275
783.437	138.588
783.565	139.338
783.693	135.287
783.821	139.075
783.949	133.012
784.077	138.050
784.205	137.162
784.333	147.900
784.462	131.600
784.590	137.238
784.718	137.412
784.846	130.975
784.974	138.100
785.102	141.900
785.230	134.887
785.358	143.262
785.487	135.275
785.615	137.113
785.743	130.475
785.871	130.050
785.999	135.500
786.127	124.800
786.255	142.725
786.383	140.000
786.512	129.062
786.640	128.750
786.768	137.812
786.896	135.450
787.024	133.300
787.152	131.662
787.280	129.488
787.408	128.150
787.537	133.738
787.665	132.725
787.793	133.375
787.921	135.012
788.049	127.900
788.177	125.437
788.305	126.675
788.433	128.387
788.562	125.987
788.690	128.262
788.818	127.763
788.946	126.763
789.074	123.300
789.202	129.713
789.330	128.437
789.458	127.437
789.587	129.700
789.715	129.937
789.843	124.612
789.971	125.275
790.099	124.088
790.227	126.275
790.355	124.112
790.483	128.175
790.612	125.612
790.740	128.050
790.868	134.738
790.996	125.175
791.124	127.263
791.252	128.512
791.380	128.787
791.508	123.275
791.637	128.900
791.765	119.562
791.893	122.013
792.021	133.550
792.149	124.575
792.277	124.475
792.405	124.100
792.533	131.512
792.662	120.213
792.790	126.850
792.918	129.787
793.046	121.537
793.174	124.588
793.302	127.350
793.430	122.600
793.558	131.300
793.687	121.638
793.815	128.012
793.943	128.637
794.071	122.638
794.199	121.600
794.327	124.750
794.455	141.738
794.583	137.175
794.712	125.925
794.840	122.500
794.968	123.388
795.096	126.050
795.224	120.537
795.352	120.888
795.480	123.775
795.608	125.175
795.737	125.287
795.865	124.687
795.993	117.562
796.121	120.662
796.249	126.425
796.377	122.838
796.505	125.900
796.633	120.412
796.762	121.375
796.890	128.350
797.018	123.875
797.146	121.150
797.274	117.213
797.402	120.200
797.530	123.213
797.658	119.838
797.787	127.675
797.915	122.375
798.043	124.575
798.171	125.475
798.299	117.162
798.427	122.763
798.555	114.737
798.683	115.625
798.812	120.912
798.940	120.425
799.068	122.037
799.196	124.625
799.324	116.075
799.452	121.775
799.580	118.350
799.708	126.450
799.837	117.763
799.965	118.912
800.093	122.125
800.221	121.037
800.349	117.725
800.477	117.750
800.605	120.475
800.733	121.388
800.862	117.037
800.990	132.412
801.118	122.088
801.246	116.487
801.374	119.000
801.502	121.312
801.630	115.875
801.758	117.912
801.887	121.987
802.015	116.062
802.143	117.400
802.271	117.588
802.399	121.162
802.527	119.213
802.655	116.237
802.783	127.475
802.912	122.888
803.040	118.550
803.168	118.550
803.296	117.662
803.424	116.312
803.552	114.150
803.680	119.287
803.808	120.650
803.937	116.150
804.065	116.638
804.193	118.750
804.321	115.800
804.449	114.737
804.577	116.325
804.705	114.425
804.833	111.000
804.962	112.662
805.090	114.487
805.218	121.588
805.346	115.625
805.474	117.487
805.602	123.513
805.730	115.025
805.858	110.500
805.987	112.187
806.115	115.987
806.243	115.062
806.371	113.912
806.499	114.088
806.627	113.075
806.755	119.925
806.883	113.287
807.012	114.388
807.140	113.125
807.268	116.537
807.396	114.713
807.524	113.125
807.652	118.037
807.780	127.300
807.908	116.850
808.037	121.713
808.165	119.100
808.293	116.425
808.421	119.987
808.549	113.475
808.677	111.250
808.805	118.937
808.933	115.225
809.062	113.225
809.190	125.900
809.318	116.412
809.446	113.775
809.574	113.975
809.702	116.100
809.830	113.237
809.958	118.812
810.087	112.650
810.215	116.037
810.343	127.150
810.471	116.937
810.599	112.263
810.727	115.025
810.855	113.787
810.983	113.937
811.112	115.375
811.240	111.475
811.368	117.400
811.496	123.037
811.624	115.150
811.752	110.937
811.880	108.112
812.008	111.537
812.137	112.987
812.265	112.850
812.393	113.800
812.521	113.275
812.649	115.275
812.777	112.862
812.905	119.487
813.033	110.138
813.162	110.112
813.290	109.600
813.418	111.687
813.546	110.025
813.674	111.400
813.802	113.350
813.930	113.338
814.058	108.338
814.187	108.713
814.315	114.513
814.443	112.737
814.571	107.687
814.699	112.487
814.827	113.825
814.955	118.175
815.083	113.600
815.212	114.025
815.340	110.862
815.468	113.187
815.596	110.075
815.724	108.888
815.852	109.100
815.980	108.800
816.108	113.763
816.237	115.150
816.365	109.562
816.493	112.250
816.621	109.750
816.749	111.100
816.877	115.013
817.005	115.100
817.133	111.437
817.262	109.237
817.390	117.350
817.518	110.912
817.646	114.375
817.774	110.950
817.902	114.013
818.030	107.100
818.158	113.638
818.287	111.362
818.415	106.987
818.543	109.900
818.671	112.400
818.799	112.050
818.927	112.775
819.055	109.125
819.183	107.600
819.312	111.700
819.440	114.287
819.568	111.138
819.696	115.588
819.824	115.062
819.952	109.812
820.080	108.000
820.208	107.237
820.337	111.138
820.465	115.325
820.593	112.250
820.721	110.187
820.849	110.237
820.977	108.275
821.105	109.812
821.233	108.138
821.362	111.300
821.490	108.862
821.618	109.450
821.746	108.638
821.874	110.400
822.002	111.662
822.130	108.925
822.258	106.775
822.387	107.475
822.515	112.075
822.643	109.575
822.771	109.425
822.899	110.888
823.027	110.375
823.155	107.125
823.283	111.625
823.412	108.737
823.540	108.600
823.668	119.237
823.796	108.763
823.924	110.950
824.052	117.013
824.180	108.725
824.308	108.937
824.437	109.362
824.565	109.112
824.693	109.150
824.821	110.450
824.949	110.100
825.077	109.987
825.205	114.213
825.333	109.812
825.462	108.162
825.590	106.862
825.718	112.662
825.846	107.838
825.974	109.175
826.102	108.950
826.230	109.475
826.358	107.687
826.487	105.912
826.615	107.013
826.743	108.713
826.871	112.900
826.999	113.338
827.127	110.650
827.255	108.638
827.383	106.287
827.512	112.350
827.640	112.425
827.768	108.237
827.896	107.987
828.024	108.437
828.152	109.412
828.280	109.362
828.408	109.600
828.537	109.763
828.665	107.862
828.793	107.275
828.921	109.950
829.049	107.200
829.177	105.987
829.305	107.500
829.433	106.912
829.562	104.213
829.690	106.400
829.818	111.937
829.946	113.950
830.074	105.787
830.202	107.075
830.330	107.975
830.458	106.800
830.587	108.600
830.715	108.513
830.843	107.713
830.971	107.950
831.099	114.037
831.227	106.450
831.355	107.225
831.483	106.650
831.612	106.638
831.740	108.862
831.868	108.525
831.996	106.925
832.124	109.400
832.252	104.575
832.380	108.175
832.508	108.862
832.637	109.838
832.765	108.912
832.893	110.388
833.021	108.875
833.149	108.463
833.277	107.950
833.405	104.013
833.533	106.675
833.662	105.550
833.790	109.912
833.918	112.650
834.046	107.725
834.174	106.400
834.302	107.138
834.430	106.950
834.558	114.862
834.687	106.338
834.815	104.412
834.943	105.350
835.071	106.013
835.199	108.412
835.327	107.237
835.455	106.375
835.583	107.600
835.712	106.037
835.840	109.737
835.968	107.100
836.096	108.250
836.224	110.000
836.352	107.325
836.480	110.600
836.608	110.987
836.737	106.263
836.865	104.812
836.993	104.687
837.121	103.975
837.249	108.912
837.377	110.350
837.505	106.588
837.633	107.812
837.762	103.725
837.890	104.037
838.018	112.000
838.146	107.600
838.274	107.850
838.402	106.025
838.530	105.463
838.658	105.800
838.787	107.675
838.915	108.937
839.043	110.025
839.171	115.675
839.299	107.287
839.427	107.800
839.555	115.550
839.683	107.775
839.812	104.388
839.940	103.300
840.068	106.350
840.196	108.487
840.324	110.662
840.452	109.425
840.580	112.963
840.708	108.125
840.837	107.112
840.965	108.800
841.093	109.625
841.221	110.912
841.349	109.650
841.477	109.963
841.605	106.763
841.733	108.025
841.862	109.175
841.990	106.525
842.118	105.225
842.246	103.575
842.374	104.013
842.502	104.112
842.630	106.888
842.758	110.050
842.887	108.150
843.015	107.338
843.143	110.112
843.271	108.350
843.399	109.862
843.527	105.000
843.655	104.400
843.783	105.850
843.912	104.175
844.040	109.975
844.168	115.550
844.296	108.850
844.424	108.075
844.552	106.775
844.680	111.525
844.808	109.475
844.937	108.950
845.065	105.562
845.193	109.062
845.321	107.263
845.449	107.412
845.577	104.975
845.705	108.912
845.833	111.125
845.962	106.963
846.090	106.487
846.218	107.200
846.346	108.737
846.474	107.812
846.602	106.025
846.730	106.400
846.858	105.487
846.987	106.537
847.115	106.737
847.243	109.588
847.371	110.450
847.499	109.362
847.627	104.187
847.755	104.050
847.883	108.612
848.012	110.013
848.140	109.900
848.268	107.575
848.396	105.588
848.524	105.675
848.652	106.225
848.780	102.088
848.908	103.888
849.037	105.787
849.165	106.200
849.293	105.287
849.421	110.575
849.549	103.050
849.677	107.138
849.805	115.187
849.933	108.825
850.062	105.662
850.190	104.463
850.318	108.150
850.446	105.975
850.574	104.050
850.702	108.213
850.830	108.300
850.958	104.975
851.087	107.600
851.215	114.375
851.343	106.875
851.471	107.112
851.599	105.937
851.727	109.800
851.855	106.937
851.983	111.025
852.112	108.338
852.240	105.300
852.368	107.138
852.496	105.150
852.624	108.050
852.752	105.600
852.880	102.862
853.008	105.687
853.137	107.550
853.265	105.487
853.393	111.338
853.521	114.537
853.649	112.537
853.777	106.500
853.905	107.987
854.033	109.888
854.162	107.162
854.290	107.075
854.418	103.200
854.546	106.263
854.674	107.925
854.802	105.588
854.930	106.700
855.058	104.862
855.187	103.350
855.315	105.937
855.443	104.088
855.571	104.700
855.699	106.050
855.827	107.450
855.955	106.412
856.083	106.075
856.212	105.375
856.340	106.963
856.468	106.475
856.596	107.125
856.724	107.088
856.852	107.900
856.980	106.200
857.108	104.825
857.237	106.713
857.365	108.075
857.493	107.787
857.621	105.850
857.749	105.700
857.877	108.875
858.005	109.750
858.133	106.237
858.262	106.263
858.390	107.237
858.518	103.787
858.646	104.888
858.774	104.463
858.902	107.088
859.030	107.050
859.158	106.312
859.287	106.325
859.415	108.037
859.543	104.850
859.671	110.088
859.799	112.338
859.927	107.675
860.055	108.062
860.183	104.787
860.312	108.550
860.440	106.588
860.568	109.412
860.696	107.625
860.824	116.900
860.952	105.638
861.080	107.500
861.208	107.088
861.337	108.638
861.465	108.975
861.593	110.062
861.721	104.650
861.849	106.912
861.977	108.650
862.105	108.162
862.233	106.338
862.362	107.825
862.490	106.213
862.618	103.638
862.746	105.750
862.874	105.763
863.002	108.425
863.130	111.062
863.258	106.550
863.387	109.725
863.515	107.750
863.643	104.162
863.771	106.463
863.899	108.725
864.027	107.088
864.155	106.513
864.283	106.850
864.412	105.888
864.540	104.612
864.668	103.838
864.796	107.500
864.924	105.350
865.052	106.463
865.180	103.800
865.308	101.300
865.437	106.000
865.565	108.562
865.693	106.162
865.821	105.638
865.949	104.525
866.077	105.200
866.205	103.575
866.333	105.750
866.462	106.575
866.590	104.850
866.718	106.300
866.846	106.388
866.974	106.662
867.102	110.537
867.230	106.987
867.358	108.987
867.487	108.900
867.615	105.950
867.743	107.612
867.871	106.975
867.999	108.338
868.127	104.650
868.255	116.787
868.383	110.725
868.512	105.312
868.640	104.888
868.768	106.562
868.896	107.013
869.024	107.162
869.152	107.250
869.280	108.812
869.408	110.237
869.537	108.050
869.665	106.150
869.793	104.687
869.921	106.375
870.049	108.862
870.177	105.325
870.305	115.612
870.433	109.237
870.562	105.925
870.690	105.513
870.818	104.437
870.946	105.263
871.074	104.187
871.202	104.675
871.330	105.600
871.458	106.612
871.587	106.713
871.715	104.925
871.843	105.800
871.971	108.487
872.099	106.250
872.227	105.213
872.355	107.513
872.483	105.550
872.612	108.537
872.740	106.888
872.868	104.763
872.996	108.213
873.124	109.562
873.252	111.975
873.380	107.338
873.508	106.537
873.637	105.713
873.765	109.287
873.893	108.562
874.021	107.612
874.149	108.050
874.277	106.862
874.405	109.537
874.533	106.037
874.662	333.038
874.790	106.213
874.918	112.925
875.046	106.388
875.174	106.862
875.302	103.463
875.430	106.312
875.558	104.187
875.687	108.675
875.815	107.963
875.943	108.550
876.071	109.225
876.199	109.175
876.327	113.463
876.455	107.662
876.583	105.300
876.712	106.350
876.840	109.900
876.968	106.250
877.096	105.037
877.224	103.537
877.352	102.888
877.480	104.750
877.608	105.562
877.737	104.725
877.865	105.350
877.993	107.338
878.121	105.662
878.249	107.062
878.377	105.850
878.505	106.662
878.633	104.100
878.762	104.763
878.890	109.013
879.018	105.987
879.146	108.125
879.274	104.062
879.402	105.150
879.530	107.000
879.658	107.463
879.787	106.850
879.915	105.088
880.043	106.875
880.171	103.338
880.299	105.412
880.427	108.213
880.555	108.500
880.683	108.237
880.812	104.300
880.940	105.513
881.068	105.912
881.196	102.787
881.324	105.937
881.452	107.513
881.580	106.450
881.708	108.450
881.837	106.825
881.965	106.700
882.093	104.013
882.221	104.750
882.349	111.200
882.477	111.013
882.605	110.775
882.733	105.763
882.862	106.338
882.990	106.588
883.118	105.537
883.246	108.537
883.374	107.750
883.502	106.362
883.630	106.075
883.758	106.025
883.887	105.187
884.015	106.450
884.143	107.300
884.271	108.062
884.399	105.125
884.527	105.000
884.655	103.100
884.783	106.500
884.912	106.763
885.040	105.287
885.168	106.088
885.296	104.338
885.424	105.263
885.552	105.638
885.680	104.412
885.808	106.800
885.937	112.862
886.065	109.750
886.193	108.275
886.321	105.638
886.449	104.862
886.577	109.475
886.705	105.250
886.833	105.475
886.962	105.162
887.090	105.237
887.218	106.650
887.346	103.925
887.474	112.575
887.602	107.700
887.730	106.013
887.858	106.725
887.987	109.750
888.115	111.025
888.243	107.088
888.371	106.437
888.499	105.500
888.627	106.862
888.755	105.525
888.883	104.937
889.012	104.737
889.140	106.825
889.268	114.187
889.396	110.037
889.524	108.000
889.652	104.588
889.780	104.388
889.908	106.525
890.037	107.725
890.165	106.838
890.293	107.925
890.421	107.312
890.549	106.900
890.677	109.875
890.805	107.437
890.933	105.375
891.062	106.350
891.190	109.475
891.318	109.862
891.446	107.875
891.574	106.588
891.702	103.787
891.830	103.000
891.958	106.463
892.087	111.612
892.215	107.537
892.343	105.525
892.471	105.500
892.599	108.463
892.727	110.000
892.855	108.437
892.983	108.437
893.112	108.650
893.240	109.225
893.368	111.187
893.496	107.175
893.624	104.725
893.752	105.687
893.880	106.088
894.008	105.037
894.137	108.900
894.265	109.737
894.393	111.737
894.521	108.825
894.649	110.250
894.777	107.475
894.905	107.300
895.033	114.425
895.162	109.925
895.290	113.037
895.418	110.450
895.546	112.013
895.674	113.950
895.802	108.213
895.930	107.987
896.058	104.850
896.187	105.500
896.315	106.213
896.443	108.150
896.571	108.562
896.699	108.362
896.827	106.625
896.955	110.838
897.083	109.925
897.212	106.287
897.340	104.450
897.468	106.713
897.596	107.050
897.724	108.525
897.852	113.575
897.980	109.450
898.108	106.912
898.237	105.725
898.365	105.263
898.493	106.937
898.621	107.388
898.749	107.237
898.877	110.550
899.005	106.987
899.133	106.787
899.262	106.950
899.390	107.388
899.518	105.963
899.646	105.775
899.774	110.812
899.902	121.062
900.030	107.850
900.158	105.912
900.287	107.862
900.415	105.475
900.543	106.250
900.671	106.150
900.799	110.338
900.927	111.525
901.055	109.050
901.183	108.300
901.312	108.350
901.440	112.150
901.568	110.912
901.696	107.437
901.824	109.312
901.952	115.312
902.080	107.737
902.208	107.537
902.337	110.325
902.465	111.088
902.593	111.812
902.721	111.675
902.849	110.300
902.977	109.013
903.105	113.375
903.233	115.862
903.362	112.588
903.490	111.050
903.618	106.537
903.746	110.612
903.874	108.088
904.002	109.237
904.130	111.937
904.258	108.812
904.387	107.812
904.515	107.362
904.643	110.162
904.771	106.437
904.899	110.588
905.027	108.750
905.155	105.338
905.283	111.037
905.412	116.175
905.540	109.513
905.668	107.850
905.796	107.037
905.924	108.775
906.052	110.100
906.180	108.675
906.308	108.300
906.437	111.713
906.565	112.000
906.693	107.175
906.821	106.275
906.949	105.513
907.077	109.112
907.205	111.787
907.333	110.537
907.462	108.312
907.590	110.275
907.718	110.838
907.846	109.550
907.974	107.875
908.102	110.112
908.230	112.412
908.358	114.950
908.487	111.050
908.615	108.725
908.743	111.575
908.871	119.388
908.999	111.312
909.127	108.750
909.255	105.312
909.383	111.287
909.512	114.412
909.640	109.375
909.768	112.275
909.896	120.075
910.024	113.412
910.152	109.588
910.280	117.275
910.408	113.100
910.537	112.800
910.665	111.912
910.793	113.100
910.921	118.713
911.049	113.075
911.177	109.638
911.305	113.750
911.433	112.125
911.562	110.213
911.690	111.112
911.818	120.775
911.946	114.963
912.074	113.013
912.202	119.513
912.330	111.900
912.458	112.850
912.587	113.838
912.715	114.888
912.843	115.725
912.971	112.888
913.099	113.463
913.227	113.537
913.355	114.775
913.483	115.775
913.612	115.037
913.740	139.975
913.868	110.362
