sample16_PP_at_750.00nm_cut_at_1008.00Y_01.dat
15.05.2023
12:34:50
cut middle at Y: 1008.00
top cursor: 1048 down cursor: 968 mean of: 80 lines , 2560 datapoints
wavelength(nm)	intensity[arb. units]
585.996	1253.513
586.124	1225.537
586.252	1223.713
586.380	1221.125
586.508	1233.912
586.637	1248.187
586.765	1242.638
586.893	1239.088
587.021	1244.775
587.149	1250.287
587.277	1239.487
587.405	1262.588
587.533	1242.250
587.662	1244.088
587.790	1260.550
587.918	1247.875
588.046	1252.400
588.174	1240.900
588.302	1262.225
588.430	1252.250
588.558	1240.937
588.687	1248.263
588.815	1273.187
588.943	1245.662
589.071	1244.963
589.199	1254.812
589.327	1255.687
589.455	1233.625
589.583	1249.737
589.712	1260.612
589.840	1241.500
589.968	1241.050
590.096	1262.225
590.224	1260.900
590.352	1255.200
590.480	1262.013
590.608	1259.562
590.737	1247.612
590.865	1268.287
590.993	1263.550
591.121	1256.888
591.249	1263.525
591.377	1245.175
591.505	1255.287
591.633	1255.050
591.762	1267.588
591.890	1271.500
592.018	1261.187
592.146	1268.513
592.274	1278.650
592.402	1260.987
592.530	1260.675
592.658	1277.112
592.787	1267.362
592.915	1272.625
593.043	1279.950
593.171	1269.588
593.299	1292.125
593.427	1279.675
593.555	1276.437
593.683	1280.825
593.812	1289.525
593.940	1303.325
594.068	1287.912
594.196	1316.300
594.324	1292.013
594.452	1295.875
594.580	1309.825
594.708	1296.062
594.837	1314.775
594.965	1311.037
595.093	1324.338
595.221	1309.050
595.349	1326.138
595.477	1325.187
595.605	1307.612
595.733	1346.963
595.862	1337.000
595.990	1332.037
596.118	1330.350
596.246	1329.125
596.374	1350.100
596.502	1365.650
596.630	1341.175
596.758	1337.250
596.887	1349.350
597.015	1357.487
597.143	1335.950
597.271	1355.925
597.399	1353.187
597.527	1361.325
597.655	1354.925
597.783	1367.125
597.912	1345.850
598.040	1366.263
598.168	1357.963
598.296	1346.062
598.424	1367.225
598.552	1355.525
598.680	1350.263
598.808	1343.662
598.937	1353.812
599.065	1360.112
599.193	1345.638
599.321	1329.562
599.449	1360.075
599.577	1346.425
599.705	1348.650
599.833	1348.150
599.962	1355.687
600.090	1340.138
600.218	1344.050
600.346	1354.925
600.474	1370.787
600.602	1346.463
600.730	1366.250
600.858	1366.000
600.987	1349.800
601.115	1360.237
601.243	1358.537
601.371	1366.600
601.499	1349.400
601.627	1350.638
601.755	1367.638
601.883	1373.975
602.012	1375.475
602.140	1363.825
602.268	1381.713
602.396	1379.463
602.524	1382.513
602.652	1375.725
602.780	1378.925
602.908	1391.875
603.037	1391.700
603.165	1388.000
603.293	1408.412
603.421	1390.763
603.549	1405.338
603.677	1422.312
603.805	1396.763
603.933	1423.875
604.062	1406.225
604.190	1436.838
604.318	1416.975
604.446	1449.500
604.574	1432.975
604.702	1436.625
604.830	1439.450
604.958	1441.037
605.087	1460.812
605.215	1451.500
605.343	1449.225
605.471	1465.825
605.599	1464.100
605.727	1470.112
605.855	1468.025
605.983	1463.425
606.112	1477.912
606.240	1487.575
606.368	1491.475
606.496	1486.650
606.624	1468.013
606.752	1489.412
606.880	1491.912
607.008	1490.463
607.137	1498.362
607.265	1501.125
607.393	1498.750
607.521	1504.912
607.649	1487.013
607.777	1473.400
607.905	1482.450
608.033	1504.237
608.162	1501.362
608.290	1488.362
608.418	1501.325
608.546	1500.912
608.674	1531.787
608.802	1495.812
608.930	1499.662
609.058	1504.013
609.187	1498.750
609.315	1499.062
609.443	1506.112
609.571	1507.662
609.699	1504.050
609.827	1495.225
609.955	1504.300
610.083	1502.550
610.212	1497.937
610.340	1497.075
610.468	1498.487
610.596	1514.025
610.724	1494.713
610.852	1512.562
610.980	1495.687
611.108	1507.625
611.237	1501.138
611.365	1511.600
611.493	1503.263
611.621	1519.338
611.749	1523.037
611.877	1532.213
612.005	1518.775
612.133	1513.662
612.262	1499.162
612.390	1520.475
612.518	1525.775
612.646	1512.550
612.774	1521.263
612.902	1531.425
613.030	1539.100
613.158	1535.175
613.287	1560.987
613.415	1552.812
613.543	1545.325
613.671	1543.475
613.799	1565.037
613.927	1534.350
614.055	1550.237
614.183	1571.437
614.312	1547.250
614.440	1557.925
614.568	1562.138
614.696	1580.825
614.824	1558.725
614.952	1566.338
615.080	1576.050
615.208	1591.825
615.337	1575.025
615.465	1584.638
615.593	1590.750
615.721	1604.937
615.849	1605.787
615.977	1614.812
616.105	1599.588
616.233	1599.912
616.362	1623.800
616.490	1601.362
616.618	1621.513
616.746	1607.375
616.874	1624.125
617.002	1616.937
617.130	1638.625
617.258	1639.025
617.387	1623.162
617.515	1628.737
617.643	1651.437
617.771	1656.275
617.899	1650.825
618.027	1644.900
618.155	1651.187
618.283	1644.950
618.412	1639.213
618.540	1646.388
618.668	1640.050
618.796	1643.937
618.924	1661.487
619.052	1655.838
619.180	1666.037
619.308	1655.713
619.437	1649.562
619.565	1661.850
619.693	1652.300
619.821	1668.550
619.949	1642.412
620.077	1661.200
620.205	1654.812
620.333	1662.263
620.462	1663.862
620.590	1654.325
620.718	1663.525
620.846	1660.375
620.974	1707.325
621.102	1670.812
621.230	1679.825
621.358	1695.737
621.487	1679.075
621.615	1681.225
621.743	1700.588
621.871	1672.937
621.999	1672.612
622.127	1687.162
622.255	1677.250
622.383	1673.775
622.512	1682.700
622.640	1677.237
622.768	1679.700
622.896	1671.725
623.024	1669.300
623.152	1697.725
623.280	1681.900
623.408	1691.287
623.537	1688.650
623.665	1685.975
623.793	1699.987
623.921	1683.412
624.049	1688.687
624.177	1688.650
624.305	1702.737
624.433	1701.787
624.562	1699.950
624.690	1688.687
624.818	1702.287
624.946	1720.325
625.074	1703.537
625.202	1733.338
625.330	1689.838
625.458	1717.100
625.587	1702.975
625.715	1698.588
625.843	1701.612
625.971	1711.200
626.099	1720.713
626.227	1725.200
626.355	1703.612
626.483	1717.075
626.612	1707.362
626.740	1696.500
626.868	1726.612
626.996	1714.463
627.124	1704.213
627.252	1683.550
627.380	1726.763
627.508	1710.187
627.637	1720.975
627.765	1724.812
627.893	1738.987
628.021	1720.588
628.149	1756.937
628.277	1760.650
628.405	1748.825
628.533	1745.112
628.662	1733.650
628.790	1743.950
628.918	1741.725
629.046	1734.312
629.174	1734.850
629.302	1773.225
629.430	1767.838
629.558	1752.300
629.687	1759.700
629.815	1757.888
629.943	1762.312
630.071	1763.737
630.199	1771.062
630.327	1761.875
630.455	1761.537
630.583	1785.825
630.712	1785.075
630.840	1768.763
630.968	1805.150
631.096	1778.937
631.224	1771.187
631.352	1798.175
631.480	1786.112
631.608	1795.112
631.737	1801.025
631.865	1837.088
631.993	1806.562
632.121	1813.362
632.249	1794.250
632.377	1826.475
632.505	1814.050
632.633	1813.263
632.762	1820.088
632.890	1825.725
633.018	1820.312
633.146	1826.862
633.274	1831.375
633.402	1817.537
633.530	1824.950
633.658	1831.625
633.787	1814.987
633.915	1837.187
634.043	1825.187
634.171	1834.475
634.299	1834.000
634.427	1828.062
634.555	1832.225
634.683	1823.275
634.812	1829.638
634.940	1848.350
635.068	1827.437
635.196	1839.287
635.324	1844.875
635.452	1851.037
635.580	1837.900
635.708	1821.850
635.837	1839.450
635.965	1841.750
636.093	1832.787
636.221	1833.037
636.349	1843.350
636.477	1827.375
636.605	1842.388
636.733	1813.888
636.862	1813.112
636.990	1821.687
637.118	1811.625
637.246	1814.350
637.374	1795.900
637.502	1817.150
637.630	1821.687
637.758	1808.537
637.887	1814.412
638.015	1799.562
638.143	1812.650
638.271	1793.800
638.399	1791.287
638.527	1796.925
638.655	1803.687
638.783	1812.787
638.912	1797.237
639.040	1785.125
639.168	1792.638
639.296	1801.975
639.424	1804.275
639.552	1810.425
639.680	1826.250
639.808	1798.487
639.937	1793.475
640.065	1795.737
640.193	1813.838
640.321	1790.862
640.449	1814.875
640.577	1821.187
640.705	1780.525
640.833	1806.350
640.962	1799.300
641.090	1800.562
641.218	1806.975
641.346	1793.025
641.474	1799.075
641.602	1779.475
641.730	1808.287
641.858	1809.525
641.987	1803.362
642.115	1808.050
642.243	1822.138
642.371	1819.900
642.499	1801.787
642.627	1809.937
642.755	1819.025
642.883	1822.550
643.012	1819.412
643.140	1818.138
643.268	1807.000
643.396	1827.925
643.524	1825.200
643.652	1813.300
643.780	1816.200
643.908	1818.162
644.037	1822.662
644.165	1824.475
644.293	1820.412
644.421	1828.612
644.549	1825.638
644.677	1850.775
644.805	1834.187
644.933	1826.375
645.062	1846.100
645.190	1819.687
645.318	1810.112
645.446	1835.825
645.574	1841.200
645.702	1830.562
645.830	1847.700
645.958	1859.312
646.087	1839.588
646.215	1839.175
646.343	1852.638
646.471	1837.450
646.599	1847.850
646.727	1852.725
646.855	1842.263
646.983	1858.225
647.112	1847.525
647.240	1863.037
647.368	1813.963
647.496	1842.338
647.624	1827.775
647.752	1846.463
647.880	1860.138
648.008	1848.825
648.137	1834.312
648.265	1833.737
648.393	1840.463
648.521	1853.825
648.649	1833.162
648.777	1837.700
648.905	1835.800
649.033	1816.275
649.162	1819.875
649.290	1824.213
649.418	1807.825
649.546	1825.287
649.674	1827.675
649.802	1826.075
649.930	1831.125
650.058	1815.138
650.187	1832.200
650.315	1812.900
650.443	1822.450
650.571	1820.700
650.699	1820.600
650.827	1827.025
650.955	1812.687
651.083	1822.550
651.212	1794.700
651.340	1808.150
651.468	1794.687
651.596	1787.437
651.724	1809.600
651.852	1799.725
651.980	1788.950
652.108	1814.325
652.237	1783.675
652.365	1792.888
652.493	1798.525
652.621	1777.625
652.749	1788.362
652.877	1772.375
653.005	1780.362
653.133	1785.112
653.262	1778.537
653.390	1780.975
653.518	1767.175
653.646	1770.475
653.774	1791.575
653.902	1782.675
654.030	1773.088
654.158	1741.500
654.287	1775.700
654.415	1761.463
654.543	1760.612
654.671	1762.800
654.799	1737.300
654.927	1769.025
655.055	1748.850
655.183	1739.662
655.312	1733.537
655.440	1753.500
655.568	1755.675
655.696	1761.862
655.824	1764.487
655.952	1759.700
656.080	1729.525
656.208	1753.162
656.337	1735.338
656.465	1740.475
656.593	1740.425
656.721	1740.562
656.849	1748.812
656.977	1728.625
657.105	1728.612
657.233	1728.537
657.362	1708.575
657.490	1713.750
657.618	1727.088
657.746	1736.312
657.874	1696.513
658.002	1715.013
658.130	1705.838
658.258	1717.787
658.387	1721.787
658.515	1693.225
658.643	1716.800
658.771	1718.138
658.899	1712.088
659.027	1702.125
659.155	1714.812
659.283	1695.013
659.412	1695.612
659.540	1694.112
659.668	1717.775
659.796	1692.838
659.924	1716.213
660.052	1705.025
660.180	1688.175
660.308	1694.200
660.437	1702.562
660.565	1683.925
660.693	1687.037
660.821	1679.725
660.949	1688.937
661.077	1672.963
661.205	1678.437
661.333	1676.187
661.462	1707.475
661.590	1712.787
661.718	1690.525
661.846	1671.175
661.974	1688.862
662.102	1684.325
662.230	1683.213
662.358	1672.588
662.487	1673.850
662.615	1660.075
662.743	1677.800
662.871	1670.250
662.999	1667.775
663.127	1651.263
663.255	1667.162
663.383	1658.800
663.512	1670.562
663.640	1670.638
663.768	1671.750
663.896	1672.588
664.024	1666.037
664.152	1651.412
664.280	1654.425
664.408	1655.125
664.537	1660.013
664.665	1666.638
664.793	1651.575
664.921	1642.175
665.049	1633.575
665.177	1671.600
665.305	1642.700
665.433	1643.700
665.562	1650.713
665.690	1648.687
665.818	1645.812
665.946	1650.013
666.074	1642.037
666.202	1646.812
666.330	1633.713
666.458	1631.525
666.587	1626.650
666.715	1627.162
666.843	1634.912
666.971	1631.362
667.099	1628.425
667.227	1640.187
667.355	1620.275
667.483	1624.975
667.612	1628.275
667.740	1628.625
667.868	1641.075
667.996	1631.763
668.124	1624.425
668.252	1626.112
668.380	1616.100
668.508	1639.525
668.637	1614.625
668.765	1616.450
668.893	1624.250
669.021	1616.125
669.149	1613.537
669.277	1605.925
669.405	1597.575
669.533	1621.425
669.662	1625.987
669.790	1594.325
669.918	1613.388
670.046	1607.463
670.174	1604.675
670.302	1601.812
670.430	1592.638
670.558	1593.150
670.687	1592.300
670.815	1592.950
670.943	1584.125
671.071	1583.475
671.199	1590.225
671.327	1579.187
671.455	1578.775
671.583	1585.888
671.712	1582.513
671.840	1561.463
671.968	1560.787
672.096	1564.575
672.224	1555.237
672.352	1576.812
672.480	1560.412
672.608	1557.287
672.737	1545.388
672.865	1549.375
672.993	1545.912
673.121	1542.638
673.249	1538.912
673.377	1526.463
673.505	1533.300
673.633	1517.025
673.762	1512.237
673.890	1537.838
674.018	1531.412
674.146	1522.175
674.274	1540.075
674.402	1517.425
674.530	1523.862
674.658	1502.800
674.787	1496.500
674.915	1505.437
675.043	1510.437
675.171	1508.100
675.299	1498.850
675.427	1497.000
675.555	1490.937
675.683	1498.250
675.812	1474.900
675.940	1485.838
676.068	1499.763
676.196	1482.937
676.324	1481.375
676.452	1473.937
676.580	1474.588
676.708	1472.112
676.837	1479.937
676.965	1456.912
677.093	1465.300
677.221	1469.062
677.349	1438.963
677.477	1460.500
677.605	1430.000
677.733	1460.787
677.862	1441.287
677.990	1437.800
678.118	1429.487
678.246	1425.062
678.374	1417.050
678.502	1421.737
678.630	1416.138
678.758	1420.412
678.887	1411.763
679.015	1424.325
679.143	1397.937
679.271	1416.487
679.399	1399.388
679.527	1390.037
679.655	1398.325
679.783	1398.550
679.912	1405.037
680.040	1399.625
680.168	1395.812
680.296	1379.737
680.424	1384.975
680.552	1386.725
680.680	1389.713
680.808	1373.275
680.937	1389.275
681.065	1376.662
681.193	1375.950
681.321	1380.875
681.449	1371.850
681.577	1364.912
681.705	1351.162
681.833	1345.225
681.962	1349.362
682.090	1366.225
682.218	1353.250
682.346	1351.250
682.474	1359.250
682.602	1357.912
682.730	1333.537
682.858	1353.800
682.987	1352.075
683.115	1340.175
683.243	1338.725
683.371	1342.325
683.499	1327.100
683.627	1347.575
683.755	1336.287
683.883	1336.175
684.012	1317.612
684.140	1315.287
684.268	1323.175
684.396	1332.225
684.524	1339.150
684.652	1336.975
684.780	1328.850
684.908	1318.562
685.037	1315.725
685.165	1314.875
685.293	1317.000
685.421	1312.600
685.549	1303.888
685.677	1301.950
685.805	1304.000
685.933	1305.850
686.062	1290.000
686.190	1301.287
686.318	1317.888
686.446	1309.062
686.574	1300.925
686.702	1316.513
686.830	1301.600
686.958	1294.050
687.087	1294.925
687.215	1286.138
687.343	1288.100
687.471	1293.450
687.599	1275.713
687.727	1271.125
687.855	1286.612
687.983	1283.400
688.112	1289.375
688.240	1266.187
688.368	1266.550
688.496	1273.725
688.624	1273.650
688.752	1267.875
688.880	1268.162
689.008	1267.237
689.137	1266.425
689.265	1245.062
689.393	1246.625
689.521	1251.100
689.649	1251.050
689.777	1246.888
689.905	1244.175
690.033	1253.013
690.162	1242.763
690.290	1243.225
690.418	1234.175
690.546	1262.513
690.674	1248.737
690.802	1224.550
690.930	1230.300
691.058	1227.425
691.187	1216.225
691.315	1233.875
691.443	1220.812
691.571	1215.625
691.699	1213.537
691.827	1221.037
691.955	1213.937
692.083	1210.612
692.212	1201.987
692.340	1224.463
692.468	1217.513
692.596	1191.062
692.724	1213.888
692.852	1194.013
692.980	1197.825
693.108	1195.862
693.237	1169.400
693.365	1179.600
693.493	1185.937
693.621	1172.513
693.749	1177.525
693.877	1176.412
694.005	1169.400
694.133	1181.987
694.262	1179.412
694.390	1173.600
694.518	1151.250
694.646	1152.875
694.774	1153.400
694.902	1144.588
695.030	1168.500
695.158	1138.412
695.287	1151.850
695.415	1129.775
695.543	1150.362
695.671	1140.763
695.799	1130.237
695.927	1139.100
696.055	1119.925
696.183	1143.325
696.312	1122.987
696.440	1112.162
696.568	1115.537
696.696	1106.950
696.824	1107.125
696.952	1112.037
697.080	1104.125
697.208	1103.975
697.337	1099.300
697.465	1103.237
697.593	1095.662
697.721	1097.050
697.849	1086.312
697.977	1090.838
698.105	1103.062
698.233	1080.787
698.362	1076.787
698.490	1073.450
698.618	1078.250
698.746	1078.325
698.874	1074.175
699.002	1085.187
699.130	1069.287
699.258	1072.888
699.387	1058.287
699.515	1062.200
699.643	1057.362
699.771	1068.875
699.899	1063.050
700.027	1042.787
700.155	1051.925
700.283	1060.338
700.412	1051.075
700.540	1045.138
700.668	1048.525
700.796	1048.350
700.924	1028.025
701.052	1033.513
701.180	1028.112
701.308	1029.312
701.437	1033.300
701.565	1026.575
701.693	1025.975
701.821	1034.700
701.949	1032.037
702.077	1006.462
702.205	1019.250
702.333	1006.362
702.462	1013.013
702.590	1003.825
702.718	1014.163
702.846	1001.763
702.974	997.763
703.102	994.825
703.230	992.788
703.358	986.550
703.487	998.788
703.615	999.437
703.743	961.200
703.871	985.937
703.999	965.962
704.127	974.112
704.255	962.000
704.383	973.462
704.512	967.100
704.640	965.800
704.768	954.138
704.896	956.062
705.024	953.038
705.152	948.225
705.280	948.225
705.408	947.750
705.537	947.687
705.665	947.312
705.793	938.200
705.921	930.837
706.049	943.212
706.177	933.425
706.305	939.350
706.433	928.538
706.562	929.987
706.690	923.913
706.818	920.712
706.946	928.812
707.074	919.225
707.202	907.525
707.330	904.437
707.458	909.013
707.587	895.962
707.715	907.975
707.843	904.187
707.971	909.800
708.099	895.062
708.227	889.025
708.355	891.237
708.483	897.000
708.612	888.075
708.740	892.725
708.868	875.413
708.996	894.687
709.124	899.750
709.252	878.325
709.380	873.225
709.508	865.312
709.637	872.062
709.765	871.812
709.893	871.050
710.021	869.462
710.149	873.500
710.277	866.825
710.405	863.750
710.533	853.225
710.662	860.138
710.790	858.237
710.918	855.062
711.046	854.325
711.174	856.312
711.302	850.062
711.430	835.925
711.558	855.975
711.687	831.575
711.815	837.587
711.943	845.875
712.071	828.475
712.199	831.100
712.327	826.450
712.455	821.200
712.583	823.187
712.712	845.200
712.840	826.175
712.968	823.362
713.096	823.725
713.224	827.000
713.352	823.250
713.480	811.687
713.608	808.125
713.737	810.550
713.865	805.625
713.993	800.138
714.121	804.337
714.249	806.675
714.377	799.138
714.505	809.962
714.633	788.025
714.762	792.575
714.890	806.513
715.018	802.437
715.146	783.425
715.274	788.150
715.402	791.300
715.530	795.700
715.658	783.350
715.787	785.413
715.915	776.825
716.043	778.975
716.171	781.350
716.299	794.200
716.427	775.788
716.555	778.025
716.683	762.625
716.812	764.337
716.940	775.013
717.068	761.750
717.196	758.013
717.324	763.312
717.452	754.300
717.580	762.362
717.708	755.362
717.837	770.875
717.965	754.850
718.093	752.263
718.221	750.750
718.349	745.612
718.477	750.837
718.605	744.225
718.733	748.638
718.862	728.700
718.990	738.650
719.118	733.700
719.246	737.800
719.374	729.112
719.502	736.975
719.630	735.700
719.758	736.388
719.887	731.300
720.015	732.587
720.143	715.712
720.271	729.225
720.399	730.425
720.527	715.125
720.655	715.038
720.783	714.900
720.912	714.663
721.040	722.150
721.168	710.413
721.296	711.300
721.424	714.437
721.552	706.150
721.680	700.775
721.808	710.612
721.937	712.663
722.065	692.200
722.193	687.763
722.321	687.062
722.449	695.638
722.577	692.263
722.705	685.737
722.833	685.413
722.962	686.712
723.090	679.362
723.218	681.400
723.346	687.075
723.474	674.788
723.602	682.225
723.730	676.337
723.858	676.250
723.987	686.487
724.115	670.388
724.243	662.212
724.371	668.475
724.499	669.125
724.627	669.263
724.755	664.788
724.883	674.187
725.012	657.775
725.140	658.163
725.268	654.112
725.396	654.163
725.524	650.050
725.652	648.788
725.780	645.325
725.908	635.750
726.037	645.812
726.165	645.025
726.293	640.513
726.421	631.413
726.549	640.075
726.677	633.025
726.805	629.500
726.933	635.663
727.062	617.937
727.190	628.362
727.318	622.600
727.446	626.050
727.574	625.600
727.702	623.925
727.830	612.750
727.958	629.212
728.087	616.425
728.215	613.437
728.343	610.987
728.471	618.100
728.599	596.437
728.727	613.825
728.855	608.900
728.983	603.975
729.112	606.750
729.240	607.788
729.368	592.587
729.496	598.638
729.624	602.187
729.752	592.062
729.880	595.038
730.008	590.675
730.137	591.362
730.265	591.550
730.393	595.538
730.521	581.987
730.649	591.913
730.777	582.175
730.905	575.263
731.033	585.288
731.162	579.650
731.290	582.987
731.418	573.962
731.546	593.962
731.674	575.112
731.802	574.975
731.930	575.000
732.058	569.425
732.187	570.100
732.315	562.962
732.443	581.325
732.571	562.725
732.699	564.350
732.827	568.837
732.955	558.675
733.083	555.375
733.212	557.388
733.340	557.525
733.468	557.125
733.596	558.900
733.724	551.312
733.852	549.587
733.980	545.725
734.108	560.425
734.237	555.263
734.365	543.850
734.493	554.100
734.621	547.100
734.749	544.225
734.877	553.312
735.005	539.875
735.133	543.050
735.262	544.737
735.390	545.663
735.518	548.062
735.646	539.487
735.774	533.987
735.902	539.900
736.030	536.413
736.158	542.237
736.287	542.163
736.415	536.000
736.543	529.900
736.671	526.050
736.799	535.937
736.927	538.725
737.055	527.562
737.183	526.175
737.312	529.187
737.440	535.638
737.568	546.975
737.696	525.575
737.824	528.712
737.952	530.800
738.080	529.925
738.208	532.500
738.337	522.062
738.465	524.962
738.593	516.362
738.721	508.663
738.849	510.637
738.977	523.062
739.105	521.800
739.233	514.962
739.362	515.237
739.490	507.950
739.618	510.437
739.746	514.275
739.874	514.850
740.002	509.050
740.130	503.337
740.258	511.687
740.387	507.575
740.515	501.550
740.643	503.225
740.771	508.062
740.899	503.637
741.027	497.312
741.155	509.850
741.283	493.812
741.412	497.212
741.540	499.837
741.668	498.212
741.796	488.625
741.924	508.413
742.052	494.988
742.180	485.637
742.308	485.212
742.437	494.512
742.565	492.538
742.693	491.625
742.821	483.038
742.949	486.250
743.077	487.075
743.205	487.675
743.333	480.863
743.462	490.238
743.590	483.950
743.718	479.488
743.846	488.937
743.974	476.312
744.102	466.512
744.230	478.000
744.358	473.062
744.487	483.113
744.615	471.650
744.743	479.187
744.871	466.775
744.999	478.512
745.127	467.538
745.255	457.250
745.383	473.425
745.512	473.137
745.640	460.837
745.768	458.137
745.896	461.663
746.024	465.650
746.152	456.413
746.280	454.975
746.408	462.075
746.537	465.275
746.665	468.137
746.793	453.950
746.921	458.600
747.049	454.350
747.177	457.000
747.305	448.550
747.433	460.675
747.562	445.962
747.690	441.913
747.818	447.363
747.946	450.300
748.074	461.850
748.202	445.825
748.330	441.062
748.458	444.600
748.587	443.725
748.715	433.025
748.843	441.425
748.971	433.113
749.099	435.900
749.227	439.012
749.355	434.425
749.483	431.850
749.612	433.738
749.740	429.637
749.868	427.875
749.996	429.962
750.124	432.325
750.252	428.200
750.380	430.825
750.508	426.488
750.637	424.300
750.765	427.413
750.893	424.650
751.021	424.637
751.149	421.925
751.277	420.312
751.405	424.587
751.533	428.575
751.662	423.075
751.790	432.863
751.918	432.675
752.046	414.587
752.174	414.425
752.302	418.663
752.430	418.012
752.558	409.937
752.687	414.650
752.815	422.913
752.943	407.675
753.071	402.812
753.199	405.837
753.327	417.937
753.455	400.175
753.583	402.700
753.712	405.087
753.840	401.275
753.968	405.000
754.096	395.900
754.224	396.350
754.352	393.000
754.480	390.975
754.608	392.425
754.737	390.837
754.865	400.625
754.993	391.812
755.121	387.300
755.249	394.038
755.377	385.175
755.505	387.637
755.633	404.762
755.762	383.837
755.890	396.750
756.018	390.050
756.146	381.038
756.274	385.288
756.402	373.300
756.530	385.212
756.658	382.100
756.787	375.725
756.915	368.937
757.043	382.113
757.171	371.462
757.299	375.187
757.427	372.012
757.555	369.875
757.683	375.000
757.812	372.238
757.940	375.275
758.068	366.212
758.196	363.462
758.324	364.937
758.452	364.062
758.580	368.625
758.708	366.100
758.837	362.275
758.965	368.425
759.093	357.937
759.221	356.500
759.349	362.038
759.477	358.250
759.605	353.100
759.733	354.512
759.862	354.512
759.990	349.437
760.118	356.712
760.246	342.850
760.374	353.000
760.502	354.238
760.630	351.738
760.758	344.337
760.887	341.025
761.015	345.100
761.143	346.437
761.271	341.500
761.399	342.575
761.527	332.900
761.655	338.288
761.783	341.825
761.912	337.613
762.040	340.863
762.168	332.925
762.296	340.538
762.424	331.887
762.552	331.337
762.680	341.038
762.808	329.637
762.937	334.937
763.065	332.538
763.193	332.050
763.321	329.163
763.449	323.712
763.577	329.962
763.705	329.025
763.833	353.512
763.962	320.100
764.090	322.350
764.218	321.187
764.346	326.025
764.474	315.500
764.602	323.850
764.730	308.400
764.858	316.300
764.987	319.750
765.115	327.488
765.243	323.863
765.371	312.413
765.499	305.400
765.627	311.300
765.755	310.462
765.883	309.788
766.012	313.475
766.140	306.312
766.268	312.125
766.396	304.575
766.524	302.325
766.652	305.300
766.780	301.675
766.908	305.475
767.037	300.887
767.165	304.363
767.293	308.125
767.421	302.600
767.549	302.437
767.677	306.587
767.805	292.800
767.933	300.450
768.062	294.488
768.190	301.350
768.318	293.738
768.446	310.712
768.574	301.887
768.702	303.687
768.830	300.650
768.958	288.675
769.087	301.962
769.215	293.850
769.343	296.587
769.471	297.312
769.599	291.550
769.727	286.637
769.855	295.250
769.983	292.950
770.112	291.925
770.240	297.437
770.368	291.762
770.496	283.363
770.624	284.937
770.752	295.650
770.880	302.087
771.008	285.100
771.137	290.675
771.265	293.512
771.393	289.550
771.521	285.363
771.649	286.600
771.777	288.725
771.905	286.450
772.033	288.200
772.162	284.450
772.290	285.975
772.418	289.275
772.546	284.425
772.674	282.725
772.802	288.350
772.930	286.450
773.058	285.062
773.187	283.250
773.315	286.913
773.443	283.225
773.571	276.187
773.699	279.625
773.827	276.962
773.955	284.675
774.083	296.262
774.212	281.187
774.340	279.675
774.468	283.050
774.596	280.738
774.724	292.312
774.852	271.700
774.980	277.538
775.108	279.325
775.237	276.525
775.365	271.200
775.493	273.387
775.621	276.538
775.749	281.100
775.877	281.500
776.005	274.500
776.133	280.613
776.262	275.937
776.390	270.512
776.518	281.525
776.646	271.400
776.774	266.425
776.902	277.137
777.030	270.925
777.158	270.988
777.287	272.337
777.415	274.238
777.543	272.762
777.671	264.325
777.799	266.925
777.927	272.300
778.055	276.962
778.183	271.687
778.312	268.863
778.440	267.738
778.568	271.900
778.696	264.387
778.824	267.312
778.952	266.212
779.080	269.212
779.208	274.500
779.337	270.250
779.465	267.788
779.593	262.387
779.721	273.062
779.849	264.775
779.977	269.825
780.105	259.613
780.233	270.375
780.362	274.450
780.490	269.663
780.618	259.312
780.746	264.475
780.874	258.100
781.002	253.488
781.130	262.525
781.258	257.075
781.387	267.625
781.515	261.837
781.643	259.850
781.771	265.500
781.899	259.387
782.027	262.812
782.155	258.712
782.283	257.750
782.412	259.163
782.540	257.625
782.668	258.100
782.796	250.750
782.924	256.075
783.052	246.750
783.180	260.025
783.308	254.375
783.437	253.500
783.565	260.087
783.693	256.150
783.821	257.600
783.949	251.850
784.077	255.025
784.205	258.812
784.333	265.712
784.462	244.825
784.590	254.675
784.718	255.662
784.846	247.887
784.974	255.037
785.102	266.450
785.230	252.925
785.358	262.150
785.487	254.175
785.615	255.325
785.743	247.200
785.871	251.775
785.999	249.600
786.127	245.775
786.255	262.012
786.383	255.125
786.512	246.525
786.640	249.700
786.768	252.275
786.896	242.437
787.024	246.988
787.152	245.650
787.280	243.125
787.408	247.875
787.537	246.863
787.665	250.025
787.793	243.000
787.921	243.625
788.049	239.250
788.177	239.900
788.305	240.338
788.433	247.113
788.562	247.400
788.690	237.238
788.818	240.738
788.946	238.475
789.074	233.925
789.202	240.550
789.330	239.687
789.458	244.425
789.587	243.775
789.715	243.187
789.843	243.550
789.971	244.475
790.099	234.937
790.227	238.350
790.355	235.937
790.483	240.113
790.612	235.225
790.740	237.312
790.868	245.988
790.996	238.050
791.124	238.525
791.252	230.875
791.380	239.675
791.508	235.887
791.637	246.037
791.765	228.787
791.893	232.475
792.021	240.363
792.149	230.375
792.277	234.912
792.405	234.287
792.533	242.600
792.662	229.613
792.790	229.988
792.918	237.613
793.046	225.162
793.174	233.375
793.302	231.762
793.430	229.537
793.558	234.187
793.687	224.662
793.815	230.350
793.943	230.075
794.071	229.912
794.199	227.725
794.327	225.225
794.455	247.825
794.583	245.262
794.712	233.687
794.840	224.088
794.968	229.550
795.096	230.275
795.224	222.787
795.352	218.675
795.480	227.488
795.608	225.113
795.737	228.900
795.865	218.262
795.993	218.650
796.121	222.375
796.249	223.050
796.377	224.800
796.505	224.000
796.633	216.025
796.762	217.425
796.890	228.725
797.018	220.113
797.146	219.562
797.274	212.875
797.402	221.375
797.530	220.325
797.658	219.075
797.787	224.125
797.915	214.637
798.043	220.325
798.171	219.537
798.299	214.425
798.427	216.838
798.555	216.425
798.683	209.912
798.812	212.750
798.940	212.863
799.068	213.363
799.196	219.537
799.324	211.075
799.452	218.550
799.580	212.262
799.708	221.137
799.837	210.275
799.965	205.062
800.093	212.375
800.221	209.137
800.349	218.037
800.477	215.125
800.605	215.725
800.733	213.450
800.862	214.262
800.990	226.500
801.118	213.238
801.246	209.937
801.374	207.925
801.502	212.775
801.630	203.437
801.758	212.025
801.887	211.950
802.015	207.575
802.143	204.650
802.271	208.463
802.399	208.775
802.527	210.488
802.655	205.162
802.783	218.675
802.912	205.225
803.040	204.825
803.168	200.325
803.296	199.825
803.424	205.950
803.552	202.437
803.680	197.275
803.808	202.662
803.937	197.300
804.065	201.225
804.193	201.287
804.321	211.912
804.449	203.012
804.577	201.575
804.705	201.662
804.833	200.525
804.962	198.213
805.090	195.400
805.218	204.300
805.346	197.088
805.474	195.488
805.602	210.037
805.730	198.875
805.858	197.600
805.987	207.488
806.115	204.238
806.243	197.437
806.371	193.475
806.499	198.988
806.627	192.687
806.755	203.650
806.883	195.537
807.012	195.187
807.140	198.800
807.268	190.912
807.396	198.675
807.524	190.963
807.652	190.312
807.780	206.887
807.908	192.912
808.037	201.600
808.165	195.175
808.293	193.463
808.421	201.800
808.549	191.988
808.677	187.550
808.805	204.350
808.933	189.113
809.062	192.713
809.190	212.912
809.318	193.213
809.446	188.863
809.574	200.025
809.702	191.600
809.830	186.450
809.958	193.600
810.087	190.400
810.215	199.312
810.343	203.137
810.471	190.387
810.599	184.575
810.727	192.588
810.855	185.412
810.983	189.050
811.112	187.637
811.240	185.412
811.368	185.825
811.496	192.512
811.624	184.675
811.752	183.950
811.880	183.100
812.008	182.975
812.137	185.162
812.265	182.488
812.393	187.800
812.521	185.250
812.649	183.262
812.777	184.325
812.905	188.562
813.033	178.312
813.162	181.175
813.290	180.588
813.418	191.338
813.546	181.312
813.674	184.613
813.802	187.588
813.930	180.425
814.058	178.325
814.187	178.412
814.315	183.075
814.443	181.550
814.571	178.537
814.699	186.812
814.827	180.137
814.955	186.887
815.083	180.387
815.212	181.963
815.340	178.162
815.468	176.238
815.596	178.437
815.724	178.863
815.852	184.963
815.980	174.963
816.108	180.262
816.237	177.512
816.365	179.113
816.493	177.363
816.621	172.863
816.749	170.662
816.877	175.000
817.005	177.925
817.133	175.912
817.262	169.912
817.390	180.875
817.518	177.312
817.646	176.225
817.774	171.700
817.902	178.262
818.030	170.187
818.158	178.600
818.287	176.325
818.415	168.400
818.543	169.850
818.671	178.275
818.799	172.300
818.927	175.963
819.055	172.062
819.183	170.050
819.312	171.350
819.440	184.850
819.568	172.575
819.696	178.662
819.824	173.575
819.952	171.537
820.080	172.125
820.208	170.312
820.337	168.937
820.465	174.975
820.593	168.912
820.721	169.387
820.849	168.363
820.977	169.000
821.105	172.187
821.233	164.137
821.362	178.787
821.490	167.812
821.618	165.875
821.746	164.762
821.874	165.312
822.002	168.187
822.130	168.700
822.258	167.100
822.387	168.613
822.515	170.225
822.643	164.000
822.771	165.937
822.899	168.512
823.027	174.512
823.155	160.650
823.283	167.363
823.412	171.100
823.540	164.475
823.668	182.400
823.796	164.600
823.924	169.787
824.052	168.375
824.180	161.250
824.308	169.162
824.437	167.050
824.565	160.175
824.693	163.838
824.821	162.775
824.949	164.262
825.077	164.113
825.205	170.162
825.333	165.625
825.462	167.000
825.590	159.363
825.718	163.838
825.846	165.825
825.974	166.088
826.102	163.575
826.230	164.437
826.358	167.450
826.487	164.637
826.615	168.100
826.743	160.512
826.871	168.150
826.999	172.025
827.127	163.512
827.255	162.238
827.383	154.025
827.512	167.262
827.640	161.850
827.768	154.950
827.896	157.762
828.024	157.012
828.152	162.650
828.280	158.863
828.408	159.412
828.537	159.838
828.665	162.450
828.793	156.725
828.921	155.925
829.049	162.450
829.177	154.488
829.305	153.900
829.433	156.600
829.562	158.387
829.690	155.713
829.818	157.988
829.946	157.225
830.074	154.375
830.202	160.588
830.330	158.437
830.458	164.662
830.587	153.675
830.715	149.925
830.843	152.900
830.971	155.963
831.099	155.213
831.227	153.463
831.355	150.988
831.483	149.775
831.612	160.250
831.740	157.525
831.868	167.000
831.996	154.812
832.124	154.075
832.252	145.037
832.380	155.875
832.508	162.113
832.637	158.137
832.765	156.025
832.893	161.512
833.021	154.162
833.149	150.937
833.277	150.963
833.405	149.725
833.533	148.812
833.662	149.100
833.790	151.000
833.918	157.975
834.046	152.625
834.174	156.937
834.302	152.662
834.430	151.125
834.558	158.937
834.687	152.537
834.815	151.225
834.943	150.238
835.071	147.050
835.199	150.725
835.327	156.900
835.455	145.012
835.583	156.912
835.712	149.338
835.840	149.687
835.968	146.925
836.096	158.588
836.224	154.850
836.352	149.012
836.480	150.950
836.608	156.850
836.737	146.062
836.865	146.937
836.993	147.887
837.121	147.375
837.249	148.662
837.377	152.925
837.505	147.437
837.633	146.900
837.762	143.250
837.890	152.662
838.018	155.675
838.146	157.250
838.274	151.525
838.402	151.463
838.530	144.387
838.658	142.850
838.787	150.137
838.915	150.887
839.043	146.975
839.171	156.200
839.299	145.325
839.427	143.150
839.555	155.213
839.683	150.800
839.812	142.512
839.940	148.887
840.068	145.925
840.196	148.425
840.324	144.600
840.452	153.050
840.580	149.900
840.708	145.425
840.837	156.475
840.965	148.275
841.093	154.475
841.221	157.200
841.349	156.725
841.477	151.350
841.605	150.062
841.733	141.912
841.862	151.162
841.990	152.475
842.118	144.725
842.246	143.275
842.374	142.963
842.502	144.937
842.630	146.025
842.758	153.687
842.887	146.537
843.015	144.312
843.143	149.488
843.271	145.762
843.399	149.463
843.527	141.088
843.655	141.963
843.783	146.262
843.912	144.300
844.040	151.275
844.168	151.500
844.296	143.550
844.424	142.200
844.552	146.338
844.680	146.600
844.808	152.150
844.937	140.512
845.065	143.425
845.193	145.912
845.321	146.588
845.449	137.775
845.577	142.838
845.705	139.300
845.833	146.250
845.962	143.488
846.090	140.162
846.218	145.113
846.346	148.525
846.474	143.062
846.602	140.537
846.730	147.537
846.858	145.963
846.987	142.425
847.115	138.975
847.243	147.175
847.371	151.613
847.499	136.687
847.627	139.562
847.755	135.963
847.883	144.787
848.012	146.713
848.140	140.725
848.268	141.800
848.396	140.000
848.524	141.650
848.652	135.687
848.780	136.025
848.908	145.075
849.037	141.400
849.165	142.562
849.293	139.863
849.421	146.937
849.549	139.475
849.677	146.113
849.805	145.300
849.933	142.950
850.062	137.687
850.190	137.137
850.318	142.750
850.446	139.825
850.574	135.900
850.702	141.162
850.830	139.525
850.958	144.325
851.087	137.600
851.215	144.000
851.343	136.113
851.471	137.375
851.599	141.050
851.727	138.625
851.855	137.800
851.983	141.850
852.112	141.312
852.240	139.550
852.368	133.725
852.496	134.988
852.624	137.037
852.752	136.887
852.880	134.037
853.008	140.463
853.137	151.812
853.265	138.050
853.393	137.287
853.521	142.088
853.649	144.412
853.777	135.700
853.905	139.275
854.033	145.838
854.162	144.925
854.290	136.675
854.418	135.312
854.546	134.225
854.674	154.850
854.802	135.863
854.930	133.925
855.058	132.425
855.187	133.037
855.315	134.675
855.443	174.588
855.571	131.050
855.699	133.812
855.827	133.187
855.955	134.875
856.083	131.575
856.212	145.213
856.340	136.675
856.468	141.725
856.596	137.738
856.724	135.287
856.852	136.262
856.980	134.500
857.108	137.075
857.237	140.613
857.365	136.050
857.493	136.550
857.621	134.525
857.749	136.100
857.877	135.912
858.005	137.900
858.133	137.575
858.262	132.150
858.390	130.275
858.518	130.650
858.646	133.787
858.774	130.950
858.902	132.613
859.030	133.363
859.158	132.850
859.287	136.537
859.415	136.713
859.543	130.400
859.671	133.475
859.799	138.812
859.927	133.512
860.055	135.062
860.183	130.162
860.312	134.425
860.440	130.562
860.568	132.687
860.696	129.838
860.824	142.488
860.952	127.713
861.080	131.450
861.208	132.150
861.337	132.912
861.465	131.113
861.593	136.350
861.721	131.488
861.849	131.613
861.977	130.725
862.105	136.425
862.233	134.662
862.362	131.850
862.490	131.113
862.618	134.463
862.746	131.625
862.874	132.600
863.002	129.000
863.130	136.863
863.258	128.975
863.387	132.988
863.515	139.412
863.643	131.387
863.771	144.800
863.899	130.725
864.027	130.937
864.155	126.513
864.283	130.275
864.412	133.787
864.540	127.287
864.668	126.287
864.796	134.800
864.924	128.975
865.052	136.375
865.180	127.412
865.308	127.375
865.437	131.537
865.565	133.700
865.693	136.812
865.821	127.100
865.949	130.838
866.077	129.275
866.205	125.713
866.333	130.687
866.462	128.912
866.590	140.775
866.718	128.475
866.846	129.350
866.974	133.125
867.102	130.600
867.230	131.025
867.358	129.975
867.487	128.875
867.615	129.412
867.743	127.162
867.871	132.488
867.999	131.762
868.127	124.487
868.255	138.525
868.383	135.800
868.512	127.437
868.640	131.450
868.768	126.338
868.896	125.638
869.024	135.012
869.152	135.162
869.280	132.037
869.408	131.887
869.537	126.787
869.665	136.338
869.793	124.338
869.921	132.238
870.049	129.100
870.177	128.613
870.305	138.200
870.433	131.437
870.562	130.562
870.690	126.088
870.818	124.250
870.946	128.088
871.074	126.700
871.202	130.975
871.330	132.937
871.458	125.900
871.587	125.750
871.715	125.475
871.843	123.675
871.971	128.950
872.099	125.588
872.227	124.187
872.355	124.838
872.483	134.050
872.612	126.850
872.740	129.375
872.868	123.850
872.996	123.862
873.124	126.825
873.252	130.588
873.380	125.862
873.508	130.775
873.637	126.750
873.765	130.600
873.893	124.525
874.021	128.287
874.149	126.187
874.277	129.588
874.405	128.713
874.533	125.600
874.662	352.663
874.790	131.262
874.918	132.363
875.046	125.963
875.174	124.000
875.302	123.463
875.430	128.988
875.558	126.900
875.687	129.363
875.815	123.450
875.943	125.287
876.071	131.838
876.199	123.550
876.327	134.000
876.455	126.525
876.583	132.000
876.712	128.887
876.840	123.925
876.968	128.787
877.096	126.612
877.224	123.737
877.352	120.900
877.480	118.112
877.608	124.963
877.737	124.525
877.865	122.687
877.993	127.175
878.121	124.075
878.249	126.237
878.377	123.625
878.505	119.475
878.633	125.500
878.762	125.275
878.890	123.787
879.018	122.600
879.146	128.213
879.274	118.700
879.402	130.075
879.530	125.888
879.658	128.262
879.787	125.388
879.915	122.937
880.043	123.525
880.171	121.650
880.299	130.988
880.427	123.875
880.555	124.037
880.683	128.475
880.812	121.350
880.940	125.237
881.068	120.862
881.196	122.312
881.324	127.062
881.452	121.475
881.580	123.112
881.708	130.275
881.837	124.350
881.965	119.888
882.093	119.425
882.221	122.138
882.349	131.700
882.477	128.062
882.605	127.700
882.733	125.425
882.862	121.162
882.990	125.737
883.118	123.338
883.246	130.850
883.374	124.900
883.502	122.463
883.630	120.650
883.758	120.125
883.887	119.838
884.015	119.900
884.143	116.950
884.271	121.100
884.399	122.787
884.527	119.437
884.655	118.050
884.783	122.787
884.912	123.450
885.040	119.675
885.168	119.138
885.296	121.662
885.424	118.625
885.552	127.925
885.680	120.013
885.808	121.437
885.937	124.338
886.065	130.775
886.193	120.825
886.321	119.487
886.449	121.287
886.577	124.375
886.705	119.950
886.833	124.175
886.962	121.275
887.090	120.725
887.218	118.525
887.346	121.537
887.474	128.537
887.602	127.075
887.730	118.862
887.858	129.662
887.987	126.213
888.115	128.425
888.243	124.625
888.371	121.425
888.499	124.100
888.627	122.550
888.755	122.125
888.883	122.463
889.012	118.287
889.140	118.638
889.268	127.037
889.396	133.350
889.524	119.025
889.652	117.725
889.780	122.737
889.908	121.525
890.037	122.275
890.165	119.513
890.293	121.575
890.421	122.963
890.549	120.650
890.677	121.312
890.805	117.612
890.933	118.513
891.062	115.338
891.190	125.037
891.318	126.500
891.446	122.687
891.574	118.588
891.702	121.013
891.830	118.725
891.958	120.150
892.087	123.800
892.215	121.713
892.343	122.987
892.471	124.775
892.599	123.425
892.727	125.388
892.855	118.975
892.983	122.175
893.112	116.588
893.240	120.425
893.368	119.175
893.496	127.575
893.624	121.750
893.752	128.937
893.880	125.537
894.008	122.400
894.137	127.963
894.265	124.287
894.393	123.112
894.521	122.162
894.649	120.875
894.777	119.812
894.905	116.200
895.033	126.300
895.162	119.888
895.290	125.050
895.418	120.812
895.546	122.763
895.674	127.000
895.802	115.862
895.930	119.775
896.058	116.275
896.187	114.350
896.315	118.225
896.443	119.013
896.571	123.987
896.699	118.588
896.827	121.050
896.955	116.975
897.083	116.575
897.212	119.562
897.340	113.112
897.468	116.862
897.596	119.575
897.724	116.500
897.852	121.862
897.980	116.612
898.108	115.675
898.237	116.750
898.365	114.350
898.493	117.388
898.621	119.987
898.749	115.338
898.877	117.987
899.005	115.763
899.133	111.825
899.262	116.612
899.390	116.463
899.518	116.775
899.646	115.950
899.774	122.175
899.902	128.850
900.030	123.037
900.158	119.162
900.287	121.987
900.415	117.062
900.543	117.487
900.671	121.000
900.799	119.775
900.927	118.987
901.055	114.600
901.183	121.463
901.312	115.575
901.440	120.562
901.568	118.862
901.696	115.700
901.824	115.450
901.952	120.812
902.080	118.213
902.208	121.925
902.337	118.362
902.465	118.888
902.593	117.162
902.721	115.987
902.849	119.612
902.977	119.400
903.105	121.600
903.233	125.175
903.362	122.375
903.490	118.638
903.618	116.475
903.746	121.350
903.874	118.225
904.002	117.075
904.130	120.787
904.258	123.225
904.387	114.050
904.515	110.425
904.643	113.463
904.771	119.275
904.899	121.037
905.027	119.612
905.155	112.925
905.283	117.325
905.412	124.187
905.540	118.825
905.668	112.600
905.796	112.625
905.924	112.900
906.052	116.675
906.180	114.937
906.308	122.175
906.437	120.312
906.565	121.463
906.693	116.225
906.821	114.662
906.949	112.263
907.077	114.437
907.205	118.362
907.333	115.200
907.462	114.588
907.590	119.175
907.718	118.625
907.846	114.037
907.974	115.800
908.102	113.138
908.230	117.425
908.358	121.963
908.487	117.787
908.615	119.275
908.743	119.375
908.871	136.613
908.999	119.412
909.127	115.200
909.255	113.312
909.383	112.237
909.512	118.612
909.640	118.975
909.768	119.175
909.896	128.713
910.024	117.912
910.152	119.963
910.280	127.888
910.408	119.888
910.537	125.862
910.665	121.225
910.793	121.963
910.921	123.787
911.049	118.838
911.177	113.775
911.305	123.838
911.433	117.375
911.562	116.050
911.690	115.263
911.818	124.062
911.946	126.650
912.074	120.388
912.202	119.675
912.330	126.025
912.458	122.750
912.587	123.237
912.715	118.550
912.843	116.037
912.971	123.838
913.099	118.888
913.227	124.388
913.355	124.562
913.483	121.275
913.612	118.550
913.740	147.113
913.868	122.775
