sample4_PP_at_750.00nm_cut_at_1008.00Y_01.dat
15.05.2023
11:00:24
cut middle at Y: 1008.00
top cursor: 1048 down cursor: 968 mean of: 80 lines , 2560 datapoints
wavelength(nm)	intensity[arb. units]
585.996	1007.163
586.124	991.200
586.252	983.400
586.380	984.163
586.508	987.800
586.637	992.850
586.765	997.975
586.893	998.450
587.021	1000.600
587.149	1007.962
587.277	1010.462
587.405	1014.038
587.533	1003.275
587.662	1016.625
587.790	1024.713
587.918	1013.862
588.046	1020.175
588.174	1011.650
588.302	1025.737
588.430	1027.612
588.558	1019.612
588.687	1014.900
588.815	1047.725
588.943	1028.150
589.071	1020.712
589.199	1039.037
589.327	1030.937
589.455	1027.900
589.583	1030.037
589.712	1036.250
589.840	1032.838
589.968	1027.562
590.096	1040.013
590.224	1039.362
590.352	1046.638
590.480	1038.362
590.608	1046.237
590.737	1036.437
590.865	1048.775
590.993	1049.062
591.121	1054.487
591.249	1055.225
591.377	1046.987
591.505	1043.937
591.633	1053.062
591.762	1057.150
591.890	1065.862
592.018	1064.125
592.146	1061.050
592.274	1064.725
592.402	1072.650
592.530	1068.475
592.658	1075.725
592.787	1075.175
592.915	1075.937
593.043	1076.263
593.171	1068.875
593.299	1091.787
593.427	1085.338
593.555	1086.850
593.683	1094.812
593.812	1089.900
593.940	1103.437
594.068	1103.650
594.196	1117.925
594.324	1098.600
594.452	1123.138
594.580	1119.237
594.708	1117.900
594.837	1125.750
594.965	1125.487
595.093	1138.513
595.221	1135.037
595.349	1136.338
595.477	1143.862
595.605	1139.787
595.733	1172.650
595.862	1148.937
595.990	1146.300
596.118	1162.588
596.246	1156.975
596.374	1181.225
596.502	1184.888
596.630	1171.400
596.758	1183.638
596.887	1191.737
597.015	1195.925
597.143	1175.775
597.271	1184.500
597.399	1203.362
597.527	1209.237
597.655	1189.588
597.783	1203.987
597.912	1187.950
598.040	1203.450
598.168	1203.650
598.296	1210.200
598.424	1202.138
598.552	1205.075
598.680	1199.525
598.808	1195.650
598.937	1219.638
599.065	1214.162
599.193	1211.925
599.321	1198.400
599.449	1213.187
599.577	1208.112
599.705	1208.700
599.833	1207.013
599.962	1215.525
600.090	1207.800
600.218	1212.987
600.346	1221.513
600.474	1225.725
600.602	1234.263
600.730	1230.050
600.858	1245.775
600.987	1223.950
601.115	1242.425
601.243	1228.950
601.371	1232.912
601.499	1245.463
601.627	1245.412
601.755	1256.350
601.883	1253.775
602.012	1266.187
602.140	1262.062
602.268	1272.050
602.396	1281.100
602.524	1266.350
602.652	1281.400
602.780	1272.250
602.908	1285.475
603.037	1300.237
603.165	1289.088
603.293	1311.800
603.421	1326.612
603.549	1306.187
603.677	1339.037
603.805	1324.350
603.933	1337.900
604.062	1335.875
604.190	1360.200
604.318	1350.750
604.446	1363.100
604.574	1359.862
604.702	1360.812
604.830	1363.375
604.958	1387.475
605.087	1397.338
605.215	1379.588
605.343	1400.338
605.471	1408.250
605.599	1406.325
605.727	1414.112
605.855	1429.112
605.983	1409.362
606.112	1440.500
606.240	1445.225
606.368	1442.037
606.496	1444.513
606.624	1431.825
606.752	1451.500
606.880	1449.850
607.008	1464.937
607.137	1472.888
607.265	1474.937
607.393	1487.562
607.521	1471.187
607.649	1487.675
607.777	1469.125
607.905	1469.600
608.033	1492.400
608.162	1505.263
608.290	1484.287
608.418	1504.112
608.546	1494.100
608.674	1532.525
608.802	1509.550
608.930	1518.912
609.058	1509.125
609.187	1515.600
609.315	1513.600
609.443	1525.838
609.571	1523.275
609.699	1524.713
609.827	1538.713
609.955	1532.275
610.083	1531.450
610.212	1530.513
610.340	1544.225
610.468	1531.025
610.596	1542.725
610.724	1544.187
610.852	1566.575
610.980	1561.675
611.108	1561.537
611.237	1560.638
611.365	1575.750
611.493	1569.850
611.621	1573.500
611.749	1577.662
611.877	1590.350
612.005	1586.375
612.133	1593.037
612.262	1585.825
612.390	1601.225
612.518	1606.650
612.646	1590.875
612.774	1613.037
612.902	1632.838
613.030	1629.437
613.158	1623.900
613.287	1666.888
613.415	1645.750
613.543	1651.900
613.671	1654.750
613.799	1665.888
613.927	1658.612
614.055	1679.562
614.183	1679.600
614.312	1681.800
614.440	1688.250
614.568	1692.662
614.696	1709.638
614.824	1705.888
614.952	1718.588
615.080	1730.625
615.208	1731.487
615.337	1733.375
615.465	1748.838
615.593	1762.687
615.721	1771.588
615.849	1776.787
615.977	1782.138
616.105	1778.850
616.233	1795.250
616.362	1809.612
616.490	1798.500
616.618	1823.013
616.746	1805.937
616.874	1844.263
617.002	1846.125
617.130	1857.075
617.258	1848.250
617.387	1846.525
617.515	1868.937
617.643	1884.812
617.771	1877.463
617.899	1892.312
618.027	1878.175
618.155	1900.700
618.283	1895.500
618.412	1906.463
618.540	1911.875
618.668	1916.050
618.796	1904.850
618.924	1932.525
619.052	1953.088
619.180	1934.737
619.308	1952.312
619.437	1938.537
619.565	1963.187
619.693	1956.775
619.821	1961.125
619.949	1961.838
620.077	1969.325
620.205	1973.412
620.333	1982.650
620.462	1989.138
620.590	1996.150
620.718	2003.138
620.846	2003.275
620.974	2048.775
621.102	2008.275
621.230	2016.888
621.358	2049.450
621.487	2028.100
621.615	2028.138
621.743	2065.137
621.871	2061.062
621.999	2048.775
622.127	2052.762
622.255	2072.963
622.383	2064.637
622.512	2088.262
622.640	2082.000
622.768	2078.600
622.896	2082.625
623.024	2074.312
623.152	2111.425
623.280	2104.400
623.408	2111.850
623.537	2117.287
623.665	2129.988
623.793	2125.662
623.921	2123.625
624.049	2132.950
624.177	2141.738
624.305	2143.900
624.433	2158.550
624.562	2152.375
624.690	2163.537
624.818	2173.025
624.946	2191.425
625.074	2203.537
625.202	2200.275
625.330	2207.500
625.458	2209.125
625.587	2210.412
625.715	2208.000
625.843	2209.200
625.971	2217.912
626.099	2226.963
626.227	2258.225
626.355	2221.775
626.483	2263.912
626.612	2245.812
626.740	2262.825
626.868	2282.187
626.996	2262.762
627.124	2277.437
627.252	2262.162
627.380	2306.100
627.508	2289.575
627.637	2289.625
627.765	2312.125
627.893	2324.287
628.021	2298.637
628.149	2346.787
628.277	2382.488
628.405	2382.825
628.533	2342.100
628.662	2348.575
628.790	2356.000
628.918	2370.562
629.046	2383.062
629.174	2382.525
629.302	2424.750
629.430	2397.000
629.558	2398.775
629.687	2436.012
629.815	2409.687
629.943	2446.512
630.071	2452.812
630.199	2449.613
630.327	2451.287
630.455	2451.125
630.583	2501.687
630.712	2482.525
630.840	2483.363
630.968	2528.800
631.096	2507.550
631.224	2513.863
631.352	2528.088
631.480	2531.238
631.608	2531.838
631.737	2596.887
631.865	2651.575
631.993	2559.662
632.121	2633.738
632.249	2645.262
632.377	2622.213
632.505	2628.963
632.633	2590.400
632.762	2630.588
632.890	2704.175
633.018	2614.713
633.146	2668.088
633.274	2668.575
633.402	2656.812
633.530	2655.637
633.658	2779.012
633.787	2664.488
633.915	2725.863
634.043	2672.500
634.171	2702.025
634.299	2744.175
634.427	2791.637
634.555	2745.475
634.683	2720.437
634.812	2723.963
634.940	2726.650
635.068	2717.300
635.196	2761.113
635.324	2753.537
635.452	2817.137
635.580	2738.875
635.708	2751.312
635.837	2820.338
635.965	2790.125
636.093	2775.850
636.221	2778.025
636.349	2832.550
636.477	2740.950
636.605	2929.937
636.733	2755.488
636.862	2768.713
636.990	2800.437
637.118	2851.950
637.246	2811.787
637.374	2799.625
637.502	2787.912
637.630	2786.350
637.758	2803.975
637.887	2787.200
638.015	2803.750
638.143	2791.950
638.271	2804.037
638.399	2788.213
638.527	2812.637
638.655	2792.100
638.783	2934.988
638.912	2850.750
639.040	2839.850
639.168	2856.350
639.296	2836.675
639.424	2989.100
639.552	2834.750
639.680	2877.325
639.808	2886.988
639.937	2836.912
640.065	2846.637
640.193	2960.287
640.321	2855.700
640.449	2935.750
640.577	2957.887
640.705	2903.600
640.833	3011.687
640.962	2883.725
641.090	2892.363
641.218	2886.850
641.346	2909.162
641.474	2941.812
641.602	2913.287
641.730	2923.838
641.858	2947.775
641.987	2997.200
642.115	2922.825
642.243	2990.088
642.371	2991.213
642.499	2984.963
642.627	3005.250
642.755	3076.150
642.883	3071.050
643.012	3027.988
643.140	2994.713
643.268	3030.900
643.396	3054.787
643.524	3185.338
643.652	3055.937
643.780	3057.100
643.908	3072.225
644.037	3195.912
644.165	3084.200
644.293	3108.088
644.421	3098.175
644.549	3174.050
644.677	3108.812
644.805	3161.437
644.933	3097.213
645.062	3143.325
645.190	3151.025
645.318	3232.725
645.446	3170.838
645.574	3210.975
645.702	3201.562
645.830	3344.925
645.958	3165.262
646.087	3384.300
646.215	3184.937
646.343	3392.613
646.471	3258.725
646.599	3294.463
646.727	3217.975
646.855	3278.375
646.983	3302.575
647.112	3222.762
647.240	3403.113
647.368	3286.387
647.496	3319.750
647.624	3244.225
647.752	3267.562
647.880	3272.662
648.008	3287.012
648.137	3288.012
648.265	3273.363
648.393	3292.225
648.521	3326.213
648.649	3309.650
648.777	3319.287
648.905	3295.725
649.033	3322.600
649.162	3332.338
649.290	3322.363
649.418	3378.000
649.546	3360.463
649.674	3423.550
649.802	3358.375
649.930	3501.738
650.058	3307.350
650.187	3375.863
650.315	3329.250
650.443	3421.225
650.571	3374.475
650.699	3330.650
650.827	3338.213
650.955	3371.525
651.083	3355.350
651.212	3415.400
651.340	3445.175
651.468	3376.037
651.596	3348.925
651.724	3352.662
651.852	3374.375
651.980	3356.262
652.108	3454.250
652.237	3412.550
652.365	3452.437
652.493	3359.537
652.621	3378.500
652.749	3439.912
652.877	3339.525
653.005	3392.963
653.133	3390.050
653.262	3444.937
653.390	3355.662
653.518	3485.838
653.646	3413.550
653.774	3574.575
653.902	3413.650
654.030	3374.575
654.158	3406.150
654.287	3385.775
654.415	3421.125
654.543	3404.175
654.671	3448.937
654.799	3422.850
654.927	3380.225
655.055	3394.963
655.183	3423.100
655.312	3411.975
655.440	3456.613
655.568	3416.287
655.696	3511.325
655.824	3526.700
655.952	3427.387
656.080	3393.613
656.208	3588.787
656.337	3436.425
656.465	3464.863
656.593	3486.300
656.721	3464.575
656.849	3536.512
656.977	3457.762
657.105	3468.875
657.233	3419.088
657.362	3459.475
657.490	3461.562
657.618	3470.375
657.746	3486.113
657.874	3447.387
658.002	3424.363
658.130	3480.025
658.258	3437.725
658.387	3476.850
658.515	3458.537
658.643	3519.925
658.771	3475.088
658.899	3486.713
659.027	3490.425
659.155	3504.325
659.283	3635.187
659.412	3507.412
659.540	3594.137
659.668	3476.062
659.796	3535.012
659.924	3581.412
660.052	3509.025
660.180	3540.537
660.308	3521.412
660.437	3528.637
660.565	3526.113
660.693	3513.725
660.821	3506.925
660.949	3519.613
661.077	3508.213
661.205	3554.812
661.333	3500.812
661.462	3629.162
661.590	3567.775
661.718	3720.387
661.846	3644.675
661.974	3722.650
662.102	3575.912
662.230	3593.088
662.358	3587.675
662.487	3577.238
662.615	3552.437
662.743	3550.963
662.871	3559.338
662.999	3579.537
663.127	3566.137
663.255	3695.863
663.383	3675.575
663.512	3579.738
663.640	3607.988
663.768	3589.575
663.896	3617.075
664.024	3666.600
664.152	3611.088
664.280	3656.025
664.408	3639.088
664.537	3655.425
664.665	3595.588
664.793	3565.937
664.921	3607.662
665.049	3627.975
665.177	3618.375
665.305	3654.050
665.433	3650.412
665.562	3611.463
665.690	3670.675
665.818	3826.375
665.946	3680.588
666.074	3651.338
666.202	3647.162
666.330	3698.113
666.458	3673.725
666.587	3609.637
666.715	3673.300
666.843	3632.900
666.971	3649.762
667.099	3699.150
667.227	3673.363
667.355	3700.075
667.483	3674.812
667.612	3690.250
667.740	3722.700
667.868	3785.637
667.996	3724.000
668.124	3681.363
668.252	3670.637
668.380	3674.463
668.508	3704.925
668.637	3723.400
668.765	3697.475
668.893	3764.125
669.021	3678.588
669.149	3782.200
669.277	3782.137
669.405	3723.200
669.533	3726.062
669.662	3970.975
669.790	3706.150
669.918	3820.625
670.046	3735.350
670.174	3839.988
670.302	3805.675
670.430	3753.363
670.558	3810.800
670.687	3744.287
670.815	3929.137
670.943	3684.162
671.071	3753.300
671.199	3769.100
671.327	3732.375
671.455	3759.588
671.583	3746.437
671.712	3888.625
671.840	3744.238
671.968	3722.600
672.096	3746.613
672.224	3744.800
672.352	3906.475
672.480	3736.150
672.608	3740.575
672.737	3734.012
672.865	3888.988
672.993	3729.412
673.121	3680.787
673.249	3730.075
673.377	3728.000
673.505	3704.550
673.633	3738.175
673.762	3726.738
673.890	3710.937
674.018	3914.650
674.146	3741.000
674.274	3710.225
674.402	3906.100
674.530	3734.500
674.658	3740.500
674.787	3685.187
674.915	3685.037
675.043	3767.225
675.171	3743.137
675.299	3704.775
675.427	3760.400
675.555	3694.500
675.683	3716.600
675.812	3718.812
675.940	3731.525
676.068	3702.787
676.196	3713.562
676.324	3718.738
676.452	3738.088
676.580	3697.463
676.708	3756.275
676.837	3773.512
676.965	3668.025
677.093	3691.175
677.221	3688.700
677.349	3749.225
677.477	3767.075
677.605	3691.125
677.733	3760.925
677.862	3647.113
677.990	3654.300
678.118	3620.387
678.246	3685.700
678.374	3658.387
678.502	3643.525
678.630	3622.300
678.758	3615.400
678.887	3653.675
679.015	3638.125
679.143	3632.963
679.271	3631.425
679.399	3669.437
679.527	3671.000
679.655	3637.200
679.783	3674.937
679.912	3668.800
680.040	3671.700
680.168	3653.650
680.296	3646.200
680.424	3610.775
680.552	3644.562
680.680	3716.588
680.808	3638.300
680.937	3616.588
681.065	3628.863
681.193	3631.850
681.321	3635.425
681.449	3625.500
681.577	3635.262
681.705	3645.687
681.833	3616.637
681.962	3600.025
682.090	3788.137
682.218	3604.600
682.346	3595.100
682.474	3641.738
682.602	3602.175
682.730	3635.275
682.858	3599.225
682.987	3676.975
683.115	3642.100
683.243	3622.213
683.371	3607.450
683.499	3602.437
683.627	3680.150
683.755	3682.025
683.883	3784.475
684.012	3655.412
684.140	3635.838
684.268	3609.875
684.396	3650.488
684.524	3690.488
684.652	3707.225
684.780	3698.375
684.908	3692.500
685.037	3614.912
685.165	3611.925
685.293	3668.075
685.421	3720.550
685.549	3613.325
685.677	3633.175
685.805	3787.037
685.933	3684.588
686.062	3625.338
686.190	3621.250
686.318	3695.812
686.446	3638.200
686.574	3620.775
686.702	3725.863
686.830	3614.875
686.958	3652.500
687.087	3635.412
687.215	3688.437
687.343	3616.625
687.471	3641.287
687.599	3651.025
687.727	3804.575
687.855	3661.687
687.983	3685.650
688.112	3764.400
688.240	3625.887
688.368	3614.600
688.496	3690.475
688.624	3740.325
688.752	3593.088
688.880	3660.425
689.008	3649.463
689.137	3651.262
689.265	3599.412
689.393	3618.975
689.521	3607.412
689.649	3598.463
689.777	3607.912
689.905	3584.387
690.033	3617.613
690.162	3620.725
690.290	3631.588
690.418	3629.375
690.546	3650.988
690.674	3694.387
690.802	3605.937
690.930	3652.225
691.058	3624.325
691.187	3608.525
691.315	3587.812
691.443	3682.287
691.571	3600.887
691.699	3606.713
691.827	3668.525
691.955	3570.937
692.083	3576.488
692.212	3726.950
692.340	3570.650
692.468	3585.187
692.596	3575.812
692.724	3714.863
692.852	3542.762
692.980	3580.775
693.108	3570.125
693.237	3520.213
693.365	3544.900
693.493	3519.363
693.621	3509.925
693.749	3517.475
693.877	3499.113
694.005	3587.275
694.133	3508.687
694.262	3547.300
694.390	3441.850
694.518	3478.562
694.646	3463.725
694.774	3501.637
694.902	3618.762
695.030	3552.900
695.158	3478.400
695.287	3445.262
695.415	3449.463
695.543	3484.387
695.671	3534.100
695.799	3468.275
695.927	3474.963
696.055	3454.412
696.183	3477.838
696.312	3436.225
696.440	3616.062
696.568	3493.075
696.696	3418.225
696.824	3381.950
696.952	3400.400
697.080	3409.100
697.208	3349.000
697.337	3448.787
697.465	3397.488
697.593	3328.100
697.721	3351.375
697.849	3378.863
697.977	3357.437
698.105	3388.025
698.233	3330.338
698.362	3311.113
698.490	3324.625
698.618	3304.687
698.746	3429.887
698.874	3359.325
699.002	3500.762
699.130	3324.812
699.258	3349.463
699.387	3280.825
699.515	3315.012
699.643	3273.963
699.771	3322.675
699.899	3277.775
700.027	3331.963
700.155	3239.550
700.283	3268.200
700.412	3284.363
700.540	3279.912
700.668	3305.537
700.796	3236.825
700.924	3233.637
701.052	3236.400
701.180	3358.588
701.308	3252.662
701.437	3195.937
701.565	3179.187
701.693	3188.287
701.821	3194.200
701.949	3180.238
702.077	3192.925
702.205	3143.500
702.333	3160.450
702.462	3168.175
702.590	3193.812
702.718	3120.238
702.846	3146.175
702.974	3121.300
703.102	3115.662
703.230	3224.250
703.358	3190.025
703.487	3065.650
703.615	3272.912
703.743	3097.762
703.871	3065.725
703.999	3085.187
704.127	3161.600
704.255	3014.412
704.383	3242.150
704.512	3072.675
704.640	3070.175
704.768	2997.637
704.896	3109.537
705.024	3007.588
705.152	3082.150
705.280	2999.175
705.408	2995.762
705.537	2980.812
705.665	2933.475
705.793	2970.625
705.921	2931.762
706.049	2960.600
706.177	2928.375
706.305	2941.700
706.433	3007.738
706.562	2916.700
706.690	2896.825
706.818	2876.338
706.946	3070.287
707.074	2894.950
707.202	2853.588
707.330	2914.562
707.458	2851.537
707.587	2833.912
707.715	2842.200
707.843	2867.262
707.971	2879.375
708.099	2900.488
708.227	2817.325
708.355	2819.050
708.483	2784.137
708.612	2776.200
708.740	2814.575
708.868	2849.175
708.996	2770.463
709.124	2778.950
709.252	2764.213
709.380	2747.812
709.508	2776.537
709.637	2738.100
709.765	2745.088
709.893	2713.287
710.021	2705.025
710.149	2702.863
710.277	2741.838
710.405	2691.113
710.533	2697.750
710.662	2686.600
710.790	2667.825
710.918	2684.050
711.046	2680.912
711.174	2666.550
711.302	2686.113
711.430	2719.250
711.558	2626.600
711.687	2636.025
711.815	2660.950
711.943	2601.325
712.071	2633.262
712.199	2641.412
712.327	2607.450
712.455	2583.375
712.583	2599.775
712.712	2613.200
712.840	2585.338
712.968	2548.662
713.096	2587.200
713.224	2546.450
713.352	2569.088
713.480	2525.425
713.608	2531.225
713.737	2536.613
713.865	2518.287
713.993	2542.812
714.121	2499.275
714.249	2487.437
714.377	2547.562
714.505	2499.588
714.633	2536.937
714.762	2474.437
714.890	2464.500
715.018	2447.537
715.146	2441.025
715.274	2468.625
715.402	2510.963
715.530	2477.500
715.658	2413.238
715.787	2432.137
715.915	2489.262
716.043	2407.988
716.171	2433.875
716.299	2458.412
716.427	2405.338
716.555	2378.562
716.683	2379.875
716.812	2379.287
716.940	2381.863
717.068	2337.262
717.196	2379.050
717.324	2367.088
717.452	2343.963
717.580	2321.912
717.708	2326.425
717.837	2337.687
717.965	2312.412
718.093	2298.475
718.221	2270.375
718.349	2286.175
718.477	2288.762
718.605	2280.062
718.733	2255.525
718.862	2251.450
718.990	2245.562
719.118	2225.375
719.246	2226.162
719.374	2226.675
719.502	2239.025
719.630	2202.262
719.758	2208.300
719.887	2187.850
720.015	2214.100
720.143	2158.887
720.271	2156.588
720.399	2165.125
720.527	2147.738
720.655	2130.637
720.783	2126.900
720.912	2120.912
721.040	2139.262
721.168	2107.150
721.296	2106.000
721.424	2111.088
721.552	2095.900
721.680	2073.950
721.808	2066.300
721.937	2083.700
722.065	2044.787
722.193	2026.513
722.321	2033.275
722.449	2015.138
722.577	2033.638
722.705	1999.713
722.833	2000.525
722.962	2000.250
723.090	1976.362
723.218	1958.562
723.346	1963.937
723.474	1963.150
723.602	1952.975
723.730	1928.713
723.858	1932.625
723.987	1929.588
724.115	1898.912
724.243	1905.263
724.371	1902.525
724.499	1878.937
724.627	1882.412
724.755	1881.237
724.883	1877.338
725.012	1845.287
725.140	1850.025
725.268	1833.850
725.396	1836.550
725.524	1842.287
725.652	1809.725
725.780	1806.775
725.908	1780.187
726.037	1798.388
726.165	1788.150
726.293	1758.713
726.421	1745.112
726.549	1747.225
726.677	1728.412
726.805	1749.925
726.933	1731.650
727.062	1707.200
727.190	1703.013
727.318	1705.912
727.446	1702.250
727.574	1692.775
727.702	1674.037
727.830	1662.100
727.958	1662.888
728.087	1657.437
728.215	1640.037
728.343	1629.800
728.471	1631.925
728.599	1620.987
728.727	1618.100
728.855	1612.750
728.983	1602.125
729.112	1591.187
729.240	1590.500
729.368	1565.362
729.496	1559.513
729.624	1575.263
729.752	1549.100
729.880	1544.912
730.008	1542.937
730.137	1522.950
730.265	1532.000
730.393	1507.138
730.521	1503.513
730.649	1499.737
730.777	1490.088
730.905	1469.037
731.033	1466.200
731.162	1470.237
731.290	1478.550
731.418	1465.463
731.546	1468.112
731.674	1433.150
731.802	1428.612
731.930	1429.787
732.058	1418.075
732.187	1412.850
732.315	1393.713
732.443	1407.162
732.571	1391.388
732.699	1372.562
732.827	1379.612
732.955	1367.650
733.083	1366.338
733.212	1350.650
733.340	1351.975
733.468	1341.862
733.596	1343.150
733.724	1342.950
733.852	1334.612
733.980	1319.000
734.108	1325.550
734.237	1316.325
734.365	1286.300
734.493	1304.362
734.621	1288.500
734.749	1297.812
734.877	1285.812
735.005	1272.850
735.133	1282.037
735.262	1279.300
735.390	1245.250
735.518	1262.138
735.646	1256.812
735.774	1231.725
735.902	1249.675
736.030	1234.825
736.158	1238.275
736.287	1223.700
736.415	1228.300
736.543	1213.300
736.671	1198.475
736.799	1188.112
736.927	1216.850
737.055	1194.812
737.183	1189.213
737.312	1179.950
737.440	1180.725
737.568	1185.550
737.696	1171.037
737.824	1162.437
737.952	1173.275
738.080	1153.412
738.208	1154.812
738.337	1124.825
738.465	1148.138
738.593	1126.375
738.721	1118.662
738.849	1103.275
738.977	1111.550
739.105	1099.650
739.233	1101.700
739.362	1102.100
739.490	1077.975
739.618	1081.525
739.746	1077.725
739.874	1084.812
740.002	1068.638
740.130	1058.475
740.258	1061.312
740.387	1058.088
740.515	1035.775
740.643	1039.700
740.771	1055.862
740.899	1035.800
741.027	1027.487
741.155	1030.362
741.283	1010.888
741.412	1008.300
741.540	1001.575
741.668	998.400
741.796	998.150
741.924	1007.263
742.052	988.450
742.180	973.225
742.308	972.462
742.437	976.150
742.565	975.450
742.693	969.962
742.821	951.650
742.949	955.800
743.077	949.350
743.205	948.263
743.333	950.475
743.462	938.775
743.590	936.700
743.718	913.325
743.846	915.862
743.974	920.413
744.102	901.437
744.230	911.288
744.358	898.775
744.487	898.837
744.615	881.675
744.743	896.888
744.871	882.862
744.999	876.150
745.127	865.987
745.255	862.025
745.383	867.163
745.512	859.237
745.640	837.650
745.768	847.837
745.896	836.300
746.024	842.437
746.152	830.288
746.280	839.513
746.408	824.175
746.537	815.837
746.665	816.612
746.793	804.862
746.921	814.775
747.049	797.612
747.177	798.413
747.305	784.875
747.433	794.212
747.562	782.513
747.690	775.437
747.818	772.675
747.946	772.000
748.074	781.200
748.202	763.400
748.330	748.000
748.458	760.612
748.587	751.612
748.715	730.000
748.843	741.737
748.971	735.587
749.099	731.388
749.227	724.812
749.355	713.087
749.483	722.612
749.612	703.725
749.740	705.800
749.868	694.350
749.996	703.513
750.124	694.763
750.252	692.437
750.380	688.150
750.508	684.913
750.637	673.638
750.765	676.212
750.893	676.375
751.021	675.875
751.149	665.763
751.277	667.538
751.405	662.675
751.533	666.437
751.662	653.163
751.790	664.750
751.918	644.350
752.046	635.575
752.174	627.362
752.302	643.487
752.430	630.650
752.558	620.825
752.687	620.038
752.815	625.300
752.943	609.875
753.071	601.050
753.199	609.812
753.327	607.350
753.455	593.937
753.583	587.100
753.712	584.725
753.840	585.862
753.968	577.587
754.096	570.475
754.224	570.525
754.352	566.312
754.480	563.450
754.608	553.150
754.737	559.300
754.865	562.250
754.993	557.550
755.121	549.875
755.249	555.375
755.377	541.675
755.505	534.638
755.633	550.263
755.762	533.612
755.890	552.825
756.018	533.100
756.146	523.638
756.274	526.413
756.402	509.663
756.530	517.138
756.658	522.275
756.787	507.687
756.915	494.875
757.043	508.625
757.171	505.550
757.299	499.075
757.427	500.462
757.555	489.375
757.683	494.400
757.812	490.650
757.940	478.000
758.068	476.087
758.196	472.413
758.324	476.038
758.452	469.625
758.580	467.488
758.708	468.587
758.837	463.600
758.965	463.238
759.093	454.500
759.221	447.475
759.349	449.675
759.477	442.600
759.605	442.325
759.733	441.275
759.862	442.312
759.990	433.575
760.118	439.062
760.246	425.200
760.374	428.187
760.502	423.400
760.630	424.812
760.758	422.250
760.887	409.562
761.015	421.975
761.143	415.900
761.271	408.750
761.399	411.475
761.527	406.238
761.655	399.788
761.783	395.825
761.912	403.250
762.040	395.725
762.168	394.637
762.296	385.312
762.424	382.913
762.552	390.137
762.680	386.600
762.808	379.075
762.937	379.937
763.065	384.262
763.193	376.613
763.321	374.925
763.449	359.600
763.577	363.325
763.705	365.062
763.833	387.738
763.962	356.687
764.090	356.675
764.218	358.437
764.346	357.312
764.474	346.275
764.602	348.562
764.730	345.913
764.858	343.012
764.987	346.825
765.115	344.750
765.243	349.637
765.371	331.288
765.499	323.512
765.627	331.300
765.755	328.450
765.883	329.488
766.012	327.050
766.140	321.775
766.268	323.425
766.396	317.700
766.524	317.812
766.652	322.163
766.780	315.712
766.908	321.800
767.037	316.712
767.165	310.300
767.293	320.475
767.421	302.087
767.549	303.800
767.677	309.437
767.805	299.875
767.933	302.288
768.062	302.675
768.190	299.775
768.318	293.663
768.446	311.212
768.574	300.775
768.702	303.775
768.830	291.937
768.958	291.825
769.087	302.288
769.215	289.950
769.343	287.400
769.471	294.337
769.599	292.900
769.727	282.750
769.855	284.788
769.983	278.275
770.112	277.725
770.240	287.413
770.368	276.025
770.496	277.113
770.624	275.113
770.752	276.925
770.880	281.275
771.008	273.413
771.137	270.575
771.265	275.475
771.393	271.100
771.521	268.650
771.649	267.163
771.777	268.900
771.905	271.538
772.033	270.113
772.162	268.275
772.290	259.337
772.418	274.475
772.546	252.887
772.674	256.325
772.802	262.625
772.930	261.712
773.058	256.975
773.187	258.600
773.315	257.650
773.443	254.825
773.571	254.637
773.699	250.125
773.827	244.863
773.955	253.463
774.083	266.687
774.212	246.863
774.340	245.800
774.468	246.338
774.596	247.050
774.724	247.187
774.852	238.025
774.980	245.075
775.108	242.762
775.237	237.537
775.365	239.125
775.493	241.662
775.621	241.075
775.749	238.225
775.877	244.975
776.005	232.287
776.133	238.275
776.262	235.225
776.390	226.975
776.518	237.225
776.646	223.338
776.774	224.787
776.902	234.600
777.030	231.700
777.158	225.300
777.287	225.175
777.415	228.662
777.543	222.150
777.671	220.875
777.799	221.887
777.927	222.512
778.055	227.550
778.183	224.812
778.312	218.400
778.440	215.300
778.568	222.988
778.696	212.137
778.824	221.275
778.952	216.787
779.080	212.825
779.208	221.200
779.337	215.575
779.465	219.213
779.593	216.425
779.721	222.088
779.849	210.775
779.977	214.463
780.105	209.075
780.233	208.012
780.362	220.162
780.490	207.287
780.618	206.062
780.746	206.350
780.874	202.912
781.002	202.175
781.130	205.275
781.258	202.350
781.387	208.450
781.515	198.875
781.643	199.350
781.771	208.150
781.899	201.687
782.027	203.075
782.155	195.450
782.283	192.162
782.412	197.225
782.540	201.713
782.668	198.838
782.796	194.175
782.924	195.950
783.052	187.600
783.180	196.400
783.308	191.525
783.437	192.412
783.565	194.687
783.693	191.700
783.821	190.925
783.949	192.075
784.077	190.738
784.205	189.425
784.333	201.650
784.462	181.550
784.590	194.275
784.718	183.887
784.846	179.675
784.974	186.800
785.102	199.000
785.230	186.250
785.358	194.125
785.487	187.450
785.615	184.275
785.743	179.088
785.871	178.500
785.999	185.025
786.127	175.450
786.255	184.338
786.383	184.912
786.512	182.187
786.640	180.800
786.768	184.925
786.896	177.787
787.024	177.812
787.152	172.950
787.280	172.787
787.408	177.088
787.537	174.562
787.665	175.600
787.793	177.125
787.921	177.625
788.049	170.012
788.177	170.863
788.305	169.963
788.433	172.875
788.562	170.250
788.690	168.275
788.818	171.575
788.946	171.762
789.074	166.975
789.202	170.250
789.330	169.238
789.458	169.488
789.587	169.350
789.715	168.162
789.843	171.175
789.971	167.450
790.099	163.325
790.227	166.262
790.355	163.213
790.483	171.025
790.612	166.662
790.740	167.213
790.868	168.887
790.996	161.012
791.124	165.713
791.252	161.175
791.380	163.787
791.508	160.500
791.637	173.437
791.765	156.650
791.893	157.125
792.021	172.250
792.149	159.350
792.277	158.863
792.405	159.525
792.533	171.687
792.662	154.325
792.790	157.450
792.918	164.287
793.046	152.662
793.174	157.050
793.302	160.863
793.430	159.200
793.558	165.200
793.687	155.912
793.815	159.050
793.943	157.162
794.071	152.400
794.199	150.900
794.327	156.475
794.455	172.150
794.583	171.762
794.712	158.525
794.840	152.162
794.968	153.825
795.096	158.075
795.224	148.713
795.352	147.912
795.480	158.062
795.608	149.488
795.737	155.775
795.865	153.275
795.993	146.600
796.121	148.312
796.249	152.425
796.377	150.062
796.505	154.012
796.633	149.162
796.762	147.187
796.890	155.363
797.018	149.600
797.146	143.863
797.274	141.250
797.402	147.887
797.530	146.175
797.658	143.500
797.787	151.738
797.915	145.775
798.043	151.363
798.171	150.912
798.299	141.213
798.427	143.937
798.555	143.275
798.683	140.012
798.812	143.525
798.940	139.775
799.068	144.687
799.196	146.238
799.324	139.425
799.452	146.550
799.580	140.625
799.708	153.225
799.837	139.525
799.965	140.775
800.093	142.287
800.221	143.312
800.349	144.625
800.477	139.400
800.605	140.838
800.733	144.787
800.862	139.537
800.990	156.213
801.118	144.525
801.246	138.787
801.374	137.150
801.502	144.287
801.630	136.838
801.758	139.463
801.887	142.725
802.015	137.187
802.143	135.037
802.271	137.488
802.399	140.625
802.527	139.325
802.655	140.325
802.783	144.475
802.912	138.550
803.040	137.037
803.168	133.912
803.296	131.675
803.424	134.463
803.552	133.963
803.680	131.400
803.808	133.500
803.937	136.113
804.065	134.238
804.193	132.213
804.321	142.250
804.449	131.875
804.577	132.012
804.705	135.200
804.833	135.950
804.962	133.550
805.090	129.150
805.218	137.912
805.346	133.975
805.474	130.500
805.602	145.238
805.730	132.613
805.858	131.863
805.987	141.588
806.115	134.300
806.243	133.525
806.371	130.213
806.499	131.400
806.627	127.700
806.755	134.738
806.883	129.713
807.012	127.388
807.140	133.875
807.268	130.725
807.396	136.262
807.524	125.463
807.652	129.000
807.780	143.537
807.908	127.388
808.037	134.575
808.165	131.900
808.293	130.875
808.421	139.588
808.549	125.800
808.677	124.138
808.805	139.250
808.933	125.850
809.062	128.975
809.190	149.637
809.318	127.963
809.446	126.662
809.574	128.050
809.702	129.650
809.830	125.737
809.958	133.800
810.087	123.900
810.215	131.800
810.343	135.775
810.471	131.100
810.599	124.025
810.727	125.900
810.855	122.075
810.983	125.963
811.112	129.187
811.240	123.225
811.368	131.225
811.496	135.613
811.624	130.250
811.752	124.625
811.880	125.037
812.008	119.437
812.137	125.388
812.265	122.037
812.393	128.850
812.521	125.787
812.649	127.975
812.777	127.787
812.905	129.412
813.033	122.875
813.162	119.250
813.290	122.237
813.418	122.575
813.546	123.975
813.674	120.125
813.802	126.275
813.930	119.550
814.058	114.825
814.187	119.825
814.315	123.025
814.443	124.362
814.571	116.537
814.699	127.150
814.827	123.662
814.955	127.850
815.083	125.175
815.212	122.775
815.340	122.162
815.468	120.675
815.596	122.838
815.724	122.375
815.852	123.475
815.980	120.062
816.108	119.250
816.237	118.713
816.365	124.112
816.493	119.650
816.621	116.312
816.749	118.062
816.877	119.825
817.005	124.963
817.133	118.037
817.262	119.162
817.390	127.125
817.518	117.763
817.646	120.088
817.774	117.662
817.902	125.687
818.030	117.350
818.158	126.338
818.287	121.213
818.415	114.638
818.543	116.450
818.671	125.362
818.799	117.900
818.927	122.138
819.055	116.000
819.183	117.037
819.312	115.950
819.440	120.463
819.568	116.675
819.696	124.625
819.824	121.450
819.952	116.138
820.080	116.088
820.208	115.463
820.337	115.287
820.465	118.562
820.593	116.925
820.721	119.175
820.849	117.700
820.977	114.300
821.105	111.763
821.233	109.375
821.362	118.687
821.490	117.300
821.618	112.225
821.746	116.187
821.874	117.750
822.002	120.263
822.130	118.400
822.258	112.638
822.387	118.500
822.515	116.300
822.643	115.550
822.771	114.950
822.899	114.925
823.027	114.338
823.155	114.338
823.283	116.025
823.412	118.037
823.540	114.425
823.668	132.175
823.796	113.075
823.924	120.213
824.052	121.100
824.180	111.400
824.308	113.362
824.437	115.450
824.565	112.838
824.693	116.900
824.821	113.138
824.949	116.388
825.077	117.088
825.205	120.437
825.333	115.088
825.462	115.687
825.590	109.888
825.718	117.950
825.846	117.062
825.974	117.963
826.102	117.900
826.230	117.162
826.358	118.150
826.487	110.925
826.615	122.175
826.743	115.025
826.871	118.912
826.999	116.062
827.127	114.575
827.255	113.638
827.383	109.638
827.512	117.300
827.640	114.562
827.768	108.575
827.896	111.388
828.024	113.650
828.152	111.950
828.280	112.175
828.408	112.400
828.537	110.825
828.665	114.850
828.793	112.225
828.921	110.900
829.049	113.150
829.177	112.737
829.305	109.888
829.433	111.437
829.562	114.200
829.690	110.650
829.818	113.487
829.946	112.138
830.074	109.850
830.202	114.588
830.330	113.713
830.458	119.662
830.587	111.287
830.715	109.150
830.843	108.850
830.971	107.650
831.099	112.562
831.227	111.713
831.355	110.737
831.483	110.025
831.612	112.912
831.740	109.787
831.868	110.763
831.996	108.862
832.124	111.812
832.252	107.088
832.380	111.388
832.508	113.050
832.637	114.312
832.765	113.325
832.893	116.088
833.021	112.263
833.149	110.838
833.277	108.862
833.405	107.638
833.533	110.675
833.662	108.700
833.790	114.025
833.918	113.187
834.046	111.687
834.174	113.713
834.302	109.112
834.430	110.000
834.558	111.388
834.687	109.588
834.815	109.437
834.943	109.487
835.071	111.112
835.199	108.162
835.327	110.138
835.455	105.463
835.583	117.900
835.712	110.925
835.840	111.225
835.968	110.500
836.096	113.062
836.224	117.737
836.352	110.025
836.480	111.638
836.608	114.312
836.737	110.650
836.865	108.250
836.993	107.062
837.121	109.162
837.249	110.375
837.377	113.750
837.505	111.562
837.633	111.463
837.762	111.150
837.890	118.088
838.018	112.937
838.146	110.550
838.274	110.812
838.402	113.662
838.530	110.187
838.658	106.312
838.787	110.875
838.915	110.650
839.043	107.450
839.171	114.875
839.299	110.138
839.427	110.700
839.555	119.513
839.683	111.575
839.812	111.963
839.940	107.675
840.068	113.425
840.196	108.862
840.324	114.287
840.452	116.088
840.580	115.750
840.708	113.400
840.837	111.662
840.965	111.487
841.093	112.062
841.221	117.062
841.349	112.400
841.477	111.987
841.605	107.975
841.733	106.612
841.862	110.625
841.990	110.025
842.118	109.537
842.246	106.687
842.374	105.325
842.502	108.237
842.630	107.550
842.758	113.937
842.887	108.713
843.015	108.463
843.143	108.338
843.271	111.513
843.399	110.700
843.527	106.600
843.655	106.562
843.783	107.875
843.912	107.187
844.040	110.900
844.168	116.838
844.296	112.713
844.424	111.175
844.552	111.475
844.680	113.575
844.808	111.300
844.937	109.250
845.065	107.737
845.193	113.325
845.321	108.525
845.449	111.225
845.577	109.013
845.705	108.963
845.833	107.812
845.962	104.775
846.090	105.463
846.218	112.937
846.346	111.375
846.474	107.287
846.602	108.162
846.730	108.537
846.858	104.162
846.987	108.612
847.115	109.013
847.243	109.325
847.371	112.225
847.499	107.287
847.627	106.612
847.755	106.025
847.883	106.750
848.012	112.275
848.140	109.963
848.268	107.037
848.396	107.312
848.524	105.950
848.652	107.250
848.780	106.325
848.908	110.250
849.037	108.162
849.165	108.925
849.293	107.700
849.421	111.838
849.549	108.550
849.677	110.112
849.805	114.338
849.933	109.350
850.062	108.537
850.190	108.400
850.318	111.463
850.446	108.025
850.574	105.825
850.702	108.475
850.830	108.375
850.958	107.162
851.087	106.638
851.215	111.338
851.343	109.588
851.471	107.750
851.599	109.862
851.727	111.750
851.855	111.838
851.983	110.300
852.112	110.000
852.240	110.437
852.368	106.487
852.496	104.912
852.624	106.075
852.752	106.187
852.880	104.725
853.008	111.513
853.137	110.537
853.265	106.500
853.393	111.912
853.521	114.625
853.649	115.787
853.777	109.375
853.905	108.463
854.033	118.350
854.162	109.437
854.290	108.075
854.418	105.287
854.546	107.775
854.674	108.275
854.802	107.787
854.930	108.125
855.058	106.062
855.187	104.338
855.315	102.763
855.443	104.700
855.571	104.650
855.699	107.437
855.827	107.487
855.955	107.013
856.083	106.250
856.212	107.912
856.340	106.187
856.468	113.013
856.596	107.575
856.724	112.850
856.852	109.275
856.980	105.412
857.108	106.325
857.237	110.525
857.365	107.400
857.493	107.562
857.621	105.450
857.749	102.537
857.877	109.937
858.005	110.787
858.133	107.838
858.262	109.425
858.390	108.263
858.518	106.088
858.646	108.713
858.774	106.862
858.902	107.037
859.030	104.013
859.158	105.775
859.287	109.675
859.415	112.675
859.543	106.213
859.671	112.125
859.799	113.200
859.927	109.750
860.055	110.888
860.183	109.875
860.312	108.312
860.440	108.263
860.568	108.687
860.696	108.275
860.824	119.362
860.952	107.537
861.080	106.825
861.208	107.263
861.337	108.312
861.465	109.600
861.593	112.850
861.721	106.662
861.849	106.487
861.977	109.037
862.105	107.487
862.233	107.187
862.362	107.487
862.490	106.862
862.618	106.912
862.746	106.713
862.874	106.350
863.002	108.362
863.130	109.312
863.258	110.213
863.387	109.588
863.515	112.100
863.643	105.400
863.771	109.125
863.899	110.763
864.027	107.250
864.155	105.800
864.283	107.950
864.412	108.138
864.540	106.812
864.668	104.787
864.796	105.475
864.924	104.513
865.052	116.400
865.180	108.675
865.308	103.463
865.437	105.750
865.565	108.050
865.693	106.675
865.821	105.575
865.949	107.037
866.077	105.975
866.205	105.763
866.333	107.250
866.462	108.763
866.590	106.400
866.718	108.138
866.846	107.725
866.974	107.950
867.102	110.912
867.230	106.100
867.358	109.162
867.487	109.487
867.615	106.100
867.743	108.250
867.871	109.100
867.999	107.088
868.127	109.388
868.255	117.300
868.383	110.025
868.512	108.062
868.640	109.075
868.768	106.000
868.896	106.000
869.024	108.237
869.152	107.312
869.280	109.400
869.408	108.513
869.537	106.888
869.665	108.138
869.793	106.888
869.921	106.437
870.049	106.787
870.177	107.138
870.305	117.575
870.433	107.463
870.562	105.437
870.690	104.487
870.818	106.000
870.946	107.000
871.074	106.213
871.202	107.875
871.330	105.263
871.458	105.175
871.587	106.912
871.715	106.025
871.843	107.000
871.971	109.987
872.099	107.300
872.227	105.325
872.355	107.475
872.483	106.500
872.612	108.775
872.740	106.213
872.868	103.875
872.996	108.400
873.124	105.800
873.252	108.225
873.380	105.975
873.508	108.750
873.637	107.850
873.765	111.987
873.893	108.175
874.021	107.025
874.149	108.350
874.277	107.725
874.405	111.987
874.533	106.450
874.662	330.000
874.790	106.725
874.918	115.825
875.046	107.937
875.174	106.412
875.302	106.525
875.430	109.125
875.558	109.713
875.687	110.500
875.815	109.525
875.943	106.763
876.071	108.950
876.199	107.862
876.327	114.350
876.455	108.150
876.583	112.300
876.712	109.588
876.840	109.213
876.968	107.000
877.096	107.500
877.224	106.237
877.352	104.450
877.480	104.750
877.608	106.588
877.737	107.375
877.865	107.775
877.993	107.825
878.121	106.350
878.249	106.937
878.377	107.062
878.505	105.737
878.633	105.250
878.762	107.450
878.890	111.287
879.018	109.112
879.146	107.050
879.274	108.275
879.402	107.138
879.530	106.050
879.658	107.737
879.787	109.575
879.915	108.050
880.043	105.425
880.171	105.638
880.299	106.687
880.427	108.125
880.555	109.713
880.683	111.338
880.812	106.275
880.940	106.687
881.068	107.675
881.196	106.900
881.324	109.713
881.452	108.963
881.580	108.287
881.708	106.513
881.837	105.350
881.965	105.338
882.093	106.187
882.221	106.825
882.349	112.275
882.477	110.675
882.605	111.537
882.733	110.975
882.862	106.525
882.990	107.062
883.118	110.912
883.246	106.875
883.374	108.975
883.502	103.725
883.630	105.000
883.758	106.588
883.887	105.838
884.015	106.062
884.143	106.987
884.271	107.350
884.399	108.475
884.527	106.475
884.655	106.437
884.783	107.250
884.912	106.138
885.040	107.763
885.168	107.875
885.296	108.362
885.424	107.213
885.552	108.575
885.680	106.463
885.808	109.213
885.937	111.437
886.065	108.537
886.193	107.725
886.321	105.200
886.449	105.263
886.577	103.487
886.705	105.175
886.833	107.812
886.962	107.725
887.090	105.975
887.218	105.138
887.346	107.975
887.474	113.500
887.602	106.537
887.730	106.937
887.858	108.075
887.987	109.062
888.115	115.600
888.243	109.888
888.371	110.537
888.499	109.838
888.627	107.825
888.755	106.525
888.883	105.700
889.012	105.350
889.140	108.850
889.268	115.662
889.396	110.812
889.524	108.187
889.652	105.037
889.780	106.600
889.908	107.925
890.037	107.787
890.165	107.088
890.293	107.875
890.421	107.487
890.549	107.338
890.677	106.475
890.805	107.525
890.933	107.588
891.062	106.263
891.190	108.562
891.318	113.150
891.446	109.213
891.574	105.450
891.702	106.388
891.830	108.175
891.958	112.912
892.087	112.050
892.215	108.237
892.343	109.562
892.471	110.175
892.599	108.700
892.727	114.112
892.855	108.662
892.983	110.225
893.112	109.213
893.240	108.737
893.368	111.350
893.496	110.937
893.624	109.312
893.752	110.600
893.880	108.537
894.008	107.050
894.137	114.775
894.265	112.225
894.393	112.800
894.521	109.112
894.649	108.662
894.777	105.725
894.905	106.088
895.033	114.237
895.162	110.850
895.290	115.650
895.418	111.062
895.546	111.763
895.674	114.675
895.802	108.575
895.930	108.463
896.058	106.750
896.187	105.900
896.315	105.350
896.443	112.125
896.571	109.875
896.699	107.737
896.827	105.888
896.955	110.475
897.083	108.437
897.212	108.263
897.340	104.138
897.468	106.963
897.596	108.875
897.724	106.388
897.852	114.700
897.980	110.250
898.108	104.150
898.237	102.937
898.365	106.425
898.493	107.850
898.621	108.612
898.749	106.013
898.877	107.100
899.005	107.050
899.133	107.000
899.262	108.263
899.390	107.700
899.518	107.412
899.646	108.900
899.774	112.775
899.902	121.537
900.030	106.237
900.158	111.237
900.287	110.000
900.415	107.625
900.543	107.612
900.671	113.838
900.799	110.713
900.927	109.763
901.055	107.263
901.183	109.600
901.312	107.400
901.440	113.937
901.568	110.812
901.696	110.700
901.824	109.675
901.952	114.138
902.080	112.275
902.208	108.375
902.337	108.725
902.465	111.062
902.593	110.513
902.721	110.175
902.849	114.763
902.977	110.912
903.105	115.213
903.233	116.013
903.362	112.662
903.490	110.713
903.618	108.725
903.746	113.562
903.874	108.775
904.002	109.250
904.130	111.312
904.258	112.013
904.387	110.800
904.515	108.537
904.643	109.475
904.771	109.925
904.899	112.362
905.027	108.562
905.155	106.650
905.283	110.588
905.412	115.537
905.540	111.900
905.668	106.862
905.796	106.263
905.924	109.000
906.052	110.937
906.180	111.075
906.308	116.350
906.437	113.187
906.565	112.125
906.693	110.900
906.821	107.213
906.949	107.487
907.077	110.838
907.205	114.338
907.333	111.650
907.462	110.875
907.590	111.287
907.718	110.750
907.846	109.400
907.974	111.350
908.102	108.662
908.230	111.362
908.358	119.013
908.487	112.500
908.615	111.750
908.743	110.025
908.871	112.275
908.999	113.500
909.127	110.025
909.255	107.425
909.383	109.687
909.512	111.925
909.640	109.888
909.768	111.487
909.896	122.375
910.024	113.900
910.152	113.388
910.280	117.525
910.408	109.875
910.537	113.050
910.665	114.925
910.793	112.787
910.921	119.300
911.049	114.200
911.177	113.350
911.305	115.200
911.433	110.850
911.562	111.350
911.690	112.050
911.818	124.250
911.946	120.925
912.074	115.838
912.202	121.812
912.330	112.888
912.458	111.787
912.587	113.575
912.715	115.300
912.843	117.187
912.971	119.575
913.099	116.275
913.227	115.800
913.355	118.237
913.483	116.850
913.612	116.050
913.740	134.950
913.868	115.850
