sample14_PS_at_750.00nm_cut_at_1008.00Y_01.dat
15.05.2023
12:32:15
cut middle at Y: 1008.00
top cursor: 1048 down cursor: 968 mean of: 80 lines , 2560 datapoints
wavelength(nm)	intensity[arb. units]
585.996	1881.250
586.124	1849.075
586.252	1805.763
586.380	1814.138
586.508	1820.500
586.637	1829.338
586.765	1823.437
586.893	1825.400
587.021	1834.513
587.149	1834.662
587.277	1839.213
587.405	1834.850
587.533	1821.513
587.662	1830.925
587.790	1840.388
587.918	1846.325
588.046	1831.862
588.174	1850.588
588.302	1834.500
588.430	1833.612
588.558	1837.425
588.687	1848.775
588.815	1877.250
588.943	1843.338
589.071	1840.850
589.199	1863.175
589.327	1839.900
589.455	1813.263
589.583	1852.838
589.712	1845.475
589.840	1841.075
589.968	1822.425
590.096	1852.338
590.224	1842.888
590.352	1834.900
590.480	1831.963
590.608	1842.412
590.737	1819.025
590.865	1839.763
590.993	1831.200
591.121	1835.850
591.249	1834.775
591.377	1830.412
591.505	1836.812
591.633	1825.338
591.762	1854.725
591.890	1845.537
592.018	1828.263
592.146	1829.763
592.274	1857.900
592.402	1837.725
592.530	1843.700
592.658	1850.150
592.787	1841.600
592.915	1838.250
593.043	1849.088
593.171	1841.550
593.299	1862.400
593.427	1849.050
593.555	1849.925
593.683	1838.263
593.812	1855.312
593.940	1860.237
594.068	1863.888
594.196	1890.975
594.324	1855.612
594.452	1876.838
594.580	1893.000
594.708	1861.225
594.837	1887.713
594.965	1898.625
595.093	1901.312
595.221	1892.862
595.349	1908.638
595.477	1893.800
595.605	1888.375
595.733	1939.338
595.862	1922.975
595.990	1909.463
596.118	1920.825
596.246	1924.900
596.374	1948.338
596.502	1956.700
596.630	1932.763
596.758	1948.787
596.887	1957.400
597.015	1958.487
597.143	1928.925
597.271	1948.475
597.399	1969.088
597.527	1965.125
597.655	1952.537
597.783	1970.775
597.912	1954.275
598.040	1977.500
598.168	1948.225
598.296	1953.250
598.424	1947.675
598.552	1953.287
598.680	1948.825
598.808	1945.088
598.937	1956.263
599.065	1969.625
599.193	1952.475
599.321	1923.650
599.449	1955.825
599.577	1937.075
599.705	1944.388
599.833	1944.687
599.962	1933.612
600.090	1934.450
600.218	1926.737
600.346	1940.312
600.474	1951.750
600.602	1950.987
600.730	1943.787
600.858	1946.162
600.987	1949.925
601.115	1942.875
601.243	1927.850
601.371	1950.200
601.499	1966.200
601.627	1950.850
601.755	1965.412
601.883	1962.050
602.012	1978.875
602.140	1960.412
602.268	1980.350
602.396	1987.275
602.524	1998.162
602.652	1995.450
602.780	1991.175
602.908	2003.300
603.037	1997.588
603.165	2020.162
603.293	2033.550
603.421	2041.575
603.549	2037.125
603.677	2066.613
603.805	2038.437
603.933	2062.925
604.062	2056.363
604.190	2083.162
604.318	2074.575
604.446	2103.037
604.574	2103.575
604.702	2104.100
604.830	2089.213
604.958	2132.650
605.087	2147.525
605.215	2124.100
605.343	2148.588
605.471	2145.875
605.599	2161.562
605.727	2157.925
605.855	2173.600
605.983	2156.850
606.112	2165.937
606.240	2185.037
606.368	2195.363
606.496	2239.613
606.624	2190.850
606.752	2208.475
606.880	2236.937
607.008	2253.750
607.137	2248.325
607.265	2231.512
607.393	2249.475
607.521	2247.925
607.649	2227.250
607.777	2233.937
607.905	2241.225
608.033	2254.725
608.162	2249.713
608.290	2260.863
608.418	2259.600
608.546	2273.537
608.674	2262.937
608.802	2240.838
608.930	2267.988
609.058	2251.850
609.187	2256.863
609.315	2261.412
609.443	2248.787
609.571	2265.213
609.699	2267.937
609.827	2254.137
609.955	2276.550
610.083	2259.062
610.212	2261.312
610.340	2271.863
610.468	2266.500
610.596	2281.713
610.724	2266.850
610.852	2274.725
610.980	2263.137
611.108	2290.838
611.237	2273.963
611.365	2279.887
611.493	2277.062
611.621	2288.700
611.749	2291.075
611.877	2294.175
612.005	2283.300
612.133	2297.375
612.262	2282.262
612.390	2294.162
612.518	2307.387
612.646	2321.825
612.774	2300.375
612.902	2306.000
613.030	2313.775
613.158	2334.412
613.287	2351.287
613.415	2329.437
613.543	2337.637
613.671	2340.375
613.799	2354.588
613.927	2352.600
614.055	2345.037
614.183	2412.850
614.312	2350.812
614.440	2384.787
614.568	2370.488
614.696	2386.475
614.824	2428.125
614.952	2398.713
615.080	2410.613
615.208	2428.950
615.337	2426.287
615.465	2439.562
615.593	2450.950
615.721	2459.275
615.849	2489.162
615.977	2459.662
616.105	2474.262
616.233	2482.825
616.362	2498.838
616.490	2480.100
616.618	2480.812
616.746	2496.000
616.874	2531.037
617.002	2520.912
617.130	2551.213
617.258	2587.775
617.387	2533.100
617.515	2536.162
617.643	2543.825
617.771	2564.787
617.899	2570.975
618.027	2548.238
618.155	2591.925
618.283	2560.600
618.412	2573.262
618.540	2623.425
618.668	2590.238
618.796	2586.738
618.924	2636.000
619.052	2614.125
619.180	2591.137
619.308	2607.425
619.437	2619.162
619.565	2607.488
619.693	2611.100
619.821	2614.463
619.949	2616.463
620.077	2638.137
620.205	2651.488
620.333	2656.725
620.462	2661.175
620.590	2693.988
620.718	2645.825
620.846	2689.525
620.974	2712.550
621.102	2674.387
621.230	2669.937
621.358	2734.300
621.487	2660.213
621.615	2687.238
621.743	2695.425
621.871	2695.475
621.999	2718.863
622.127	2690.137
622.255	2700.900
622.383	2698.238
622.512	2700.412
622.640	2792.088
622.768	2677.488
622.896	2698.625
623.024	2685.775
623.152	2762.963
623.280	2750.950
623.408	2680.400
623.537	2718.488
623.665	2707.375
623.793	2739.488
623.921	2724.113
624.049	2711.687
624.177	2727.875
624.305	2734.225
624.433	2747.812
624.562	2750.500
624.690	2763.812
624.818	2768.750
624.946	2854.250
625.074	2765.750
625.202	2755.700
625.330	2745.963
625.458	2787.325
625.587	2762.950
625.715	2786.225
625.843	2834.262
625.971	2765.162
626.099	2768.175
626.227	2781.425
626.355	2763.963
626.483	2825.600
626.612	2742.900
626.740	2736.300
626.868	2809.525
626.996	2764.963
627.124	2791.775
627.252	2748.400
627.380	2798.738
627.508	2789.588
627.637	2781.037
627.765	2806.850
627.893	2800.562
628.021	2790.775
628.149	2821.000
628.277	2842.412
628.405	2902.825
628.533	2797.213
628.662	2861.062
628.790	2827.262
628.918	2827.675
629.046	2844.213
629.174	2832.963
629.302	2949.037
629.430	2839.037
629.558	2880.437
629.687	2878.525
629.815	2872.400
629.943	2916.875
630.071	2940.037
630.199	2919.213
630.327	2944.488
630.455	2881.637
630.583	3005.787
630.712	2982.187
630.840	2961.088
630.968	2992.800
631.096	2943.863
631.224	2949.713
631.352	2950.887
631.480	2997.350
631.608	2977.338
631.737	3105.100
631.865	3197.250
631.993	2993.525
632.121	3145.312
632.249	3100.875
632.377	3089.150
632.505	3099.300
632.633	3006.713
632.762	3098.887
632.890	3214.950
633.018	3035.887
633.146	3084.113
633.274	3123.700
633.402	3076.988
633.530	3063.012
633.658	3254.863
633.787	3050.512
633.915	3173.187
634.043	3109.738
634.171	3098.238
634.299	3158.250
634.427	3226.650
634.555	3183.312
634.683	3134.312
634.812	3129.900
634.940	3151.537
635.068	3086.613
635.196	3160.687
635.324	3159.838
635.452	3248.000
635.580	3141.062
635.708	3143.150
635.837	3212.937
635.965	3186.312
636.093	3172.550
636.221	3157.963
636.349	3264.825
636.477	3120.075
636.605	3360.500
636.733	3122.175
636.862	3137.162
636.990	3166.738
637.118	3249.025
637.246	3188.550
637.374	3165.025
637.502	3154.312
637.630	3121.600
637.758	3150.287
637.887	3134.562
638.015	3143.588
638.143	3148.512
638.271	3136.113
638.399	3153.775
638.527	3139.262
638.655	3097.200
638.783	3293.812
638.912	3181.225
639.040	3160.525
639.168	3158.838
639.296	3119.687
639.424	3295.925
639.552	3117.475
639.680	3152.537
639.808	3173.900
639.937	3110.588
640.065	3133.425
640.193	3257.338
640.321	3122.625
640.449	3212.213
640.577	3279.900
640.705	3144.925
640.833	3298.613
640.962	3128.488
641.090	3133.787
641.218	3114.550
641.346	3165.863
641.474	3194.100
641.602	3157.075
641.730	3156.200
641.858	3150.713
641.987	3222.562
642.115	3148.137
642.243	3221.187
642.371	3197.375
642.499	3193.488
642.627	3203.988
642.755	3275.738
642.883	3290.300
643.012	3219.125
643.140	3180.800
643.268	3246.450
643.396	3237.775
643.524	3384.400
643.652	3206.787
643.780	3228.887
643.908	3237.412
644.037	3371.050
644.165	3228.488
644.293	3236.562
644.421	3220.600
644.549	3324.900
644.677	3238.662
644.805	3304.863
644.933	3234.900
645.062	3279.750
645.190	3273.437
645.318	3379.875
645.446	3303.025
645.574	3316.475
645.702	3254.213
645.830	3500.575
645.958	3275.150
646.087	3500.162
646.215	3284.875
646.343	3504.400
646.471	3390.050
646.599	3368.750
646.727	3315.838
646.855	3322.275
646.983	3364.812
647.112	3294.488
647.240	3512.463
647.368	3358.812
647.496	3421.187
647.624	3285.463
647.752	3304.975
647.880	3343.675
648.008	3344.100
648.137	3322.350
648.265	3320.800
648.393	3342.287
648.521	3357.113
648.649	3343.787
648.777	3352.488
648.905	3304.350
649.033	3362.400
649.162	3369.825
649.290	3323.625
649.418	3401.738
649.546	3378.787
649.674	3414.863
649.802	3342.613
649.930	3528.062
650.058	3301.050
650.187	3374.312
650.315	3299.562
650.443	3403.450
650.571	3335.700
650.699	3300.613
650.827	3304.162
650.955	3336.725
651.083	3332.287
651.212	3384.000
651.340	3418.425
651.468	3348.988
651.596	3330.275
651.724	3290.800
651.852	3336.975
651.980	3275.363
652.108	3400.275
652.237	3328.300
652.365	3412.725
652.493	3262.088
652.621	3296.162
652.749	3385.250
652.877	3254.000
653.005	3326.238
653.133	3265.550
653.262	3335.713
653.390	3254.787
653.518	3417.350
653.646	3282.775
653.774	3473.912
653.902	3335.338
654.030	3251.000
654.158	3278.975
654.287	3265.287
654.415	3312.512
654.543	3280.437
654.671	3352.550
654.799	3277.412
654.927	3267.200
655.055	3241.113
655.183	3293.713
655.312	3259.475
655.440	3288.338
655.568	3244.863
655.696	3345.050
655.824	3378.950
655.952	3259.738
656.080	3224.700
656.208	3410.662
656.337	3267.912
656.465	3269.713
656.593	3309.050
656.721	3269.238
656.849	3326.000
656.977	3263.463
657.105	3255.175
657.233	3209.125
657.362	3226.387
657.490	3227.912
657.618	3214.363
657.746	3210.500
657.874	3208.287
658.002	3164.287
658.130	3232.450
658.258	3177.175
658.387	3203.825
658.515	3179.975
658.643	3250.775
658.771	3190.812
658.899	3216.912
659.027	3216.338
659.155	3216.662
659.283	3381.463
659.412	3214.425
659.540	3305.662
659.668	3168.162
659.796	3219.787
659.924	3274.012
660.052	3170.300
660.180	3215.000
660.308	3201.900
660.437	3199.863
660.565	3176.937
660.693	3167.537
660.821	3156.425
660.949	3164.875
661.077	3157.238
661.205	3182.400
661.333	3110.287
661.462	3272.475
661.590	3209.762
661.718	3345.650
661.846	3259.375
661.974	3357.125
662.102	3176.113
662.230	3193.975
662.358	3163.162
662.487	3162.213
662.615	3135.588
662.743	3098.050
662.871	3129.912
662.999	3117.213
663.127	3119.162
663.255	3249.425
663.383	3243.350
663.512	3114.325
663.640	3143.125
663.768	3124.262
663.896	3158.000
664.024	3183.375
664.152	3104.113
664.280	3156.150
664.408	3140.312
664.537	3186.012
664.665	3052.012
664.793	3047.750
664.921	3089.275
665.049	3109.275
665.177	3098.613
665.305	3096.912
665.433	3084.588
665.562	3056.687
665.690	3109.863
665.818	3276.325
665.946	3123.775
666.074	3074.213
666.202	3068.375
666.330	3135.425
666.458	3093.088
666.587	3033.675
666.715	3046.675
666.843	3027.925
666.971	3015.150
667.099	3096.387
667.227	3049.463
667.355	3084.650
667.483	3039.250
667.612	3068.075
667.740	3086.875
667.868	3135.950
667.996	3078.200
668.124	3044.750
668.252	3054.425
668.380	2999.437
668.508	3047.963
668.637	3047.363
668.765	3012.162
668.893	3076.600
669.021	3013.387
669.149	3094.363
669.277	3083.725
669.405	2997.187
669.533	3011.400
669.662	3278.363
669.790	3016.250
669.918	3115.113
670.046	3003.125
670.174	3116.713
670.302	3062.600
670.430	3024.800
670.558	3093.062
670.687	2995.825
670.815	3168.387
670.943	2952.025
671.071	2979.975
671.199	3017.750
671.327	2966.425
671.455	2993.988
671.583	2980.025
671.712	3111.025
671.840	2957.338
671.968	2938.375
672.096	2955.250
672.224	2953.250
672.352	3146.988
672.480	2945.425
672.608	2924.025
672.737	2892.088
672.865	3108.963
672.993	2945.262
673.121	2871.113
673.249	2921.700
673.377	2873.113
673.505	2874.662
673.633	2889.350
673.762	2852.387
673.890	2868.875
674.018	3074.162
674.146	2870.450
674.274	2880.000
674.402	3039.988
674.530	2862.900
674.658	2852.338
674.787	2801.350
674.915	2793.887
675.043	2872.088
675.171	2880.838
675.299	2813.437
675.427	2850.500
675.555	2798.775
675.683	2813.900
675.812	2795.562
675.940	2804.662
676.068	2813.975
676.196	2786.937
676.324	2781.450
676.452	2802.912
676.580	2777.125
676.708	2803.450
676.837	2824.162
676.965	2739.537
677.093	2759.050
677.221	2742.900
677.349	2770.550
677.477	2817.062
677.605	2740.113
677.733	2790.812
677.862	2710.937
677.990	2702.213
678.118	2698.100
678.246	2723.275
678.374	2687.637
678.502	2678.537
678.630	2663.687
678.758	2660.400
678.887	2669.887
679.015	2678.725
679.143	2656.000
679.271	2651.725
679.399	2659.900
679.527	2656.350
679.655	2624.562
679.783	2655.412
679.912	2636.988
680.040	2633.162
680.168	2622.213
680.296	2634.787
680.424	2636.762
680.552	2615.700
680.680	2630.975
680.808	2603.225
680.937	2586.850
681.065	2603.162
681.193	2585.550
681.321	2613.863
681.449	2596.200
681.577	2569.075
681.705	2583.975
681.833	2572.550
681.962	2553.875
682.090	2633.075
682.218	2560.463
682.346	2534.037
682.474	2564.450
682.602	2558.525
682.730	2552.988
682.858	2534.812
682.987	2556.075
683.115	2518.162
683.243	2516.088
683.371	2515.525
683.499	2523.350
683.627	2550.825
683.755	2533.113
683.883	2546.637
684.012	2518.162
684.140	2493.338
684.268	2511.700
684.396	2520.025
684.524	2502.500
684.652	2523.400
684.780	2513.488
684.908	2494.187
685.037	2489.412
685.165	2487.450
685.293	2492.850
685.421	2490.863
685.549	2459.588
685.677	2474.387
685.805	2494.750
685.933	2477.387
686.062	2430.887
686.190	2453.037
686.318	2498.875
686.446	2462.075
686.574	2448.262
686.702	2475.637
686.830	2453.650
686.958	2444.713
687.087	2428.437
687.215	2438.963
687.343	2420.062
687.471	2435.525
687.599	2420.787
687.727	2441.262
687.855	2433.375
687.983	2435.988
688.112	2442.350
688.240	2389.300
688.368	2385.275
688.496	2418.113
688.624	2431.187
688.752	2379.088
688.880	2384.637
689.008	2382.863
689.137	2388.412
689.265	2370.662
689.393	2366.937
689.521	2364.075
689.649	2387.988
689.777	2373.050
689.905	2367.637
690.033	2356.387
690.162	2353.937
690.290	2341.925
690.418	2332.912
690.546	2374.988
690.674	2373.200
690.802	2321.850
690.930	2330.662
691.058	2319.850
691.187	2299.450
691.315	2326.750
691.443	2334.887
691.571	2292.625
691.699	2283.387
691.827	2307.675
691.955	2288.250
692.083	2274.262
692.212	2297.387
692.340	2260.825
692.468	2272.825
692.596	2262.937
692.724	2292.425
692.852	2254.238
692.980	2254.575
693.108	2248.338
693.237	2229.950
693.365	2221.125
693.493	2209.450
693.621	2201.675
693.749	2210.912
693.877	2194.062
694.005	2200.800
694.133	2213.187
694.262	2193.475
694.390	2169.650
694.518	2159.200
694.646	2164.625
694.774	2153.637
694.902	2172.437
695.030	2184.975
695.158	2137.225
695.287	2143.475
695.415	2123.738
695.543	2137.125
695.671	2126.437
695.799	2110.762
695.927	2119.575
696.055	2092.988
696.183	2125.675
696.312	2102.675
696.440	2104.475
696.568	2086.613
696.696	2090.787
696.824	2083.662
696.952	2080.363
697.080	2051.937
697.208	2067.575
697.337	2044.075
697.465	2042.287
697.593	2040.912
697.721	2038.437
697.849	2021.600
697.977	2013.013
698.105	2027.638
698.233	2012.125
698.362	2003.925
698.490	2023.325
698.618	1996.088
698.746	1998.737
698.874	1999.175
699.002	2003.638
699.130	1988.250
699.258	1977.013
699.387	1949.513
699.515	1960.912
699.643	1983.987
699.771	1962.487
699.899	1952.037
700.027	1948.275
700.155	1956.775
700.283	1941.700
700.412	1918.838
700.540	1924.737
700.668	1920.937
700.796	1916.425
700.924	1900.200
701.052	1898.650
701.180	1906.425
701.308	1890.987
701.437	1888.775
701.565	1882.350
701.693	1886.888
701.821	1897.263
701.949	1880.200
702.077	1851.812
702.205	1865.537
702.333	1863.937
702.462	1853.275
702.590	1848.013
702.718	1860.500
702.846	1848.162
702.974	1844.750
703.102	1830.700
703.230	1826.575
703.358	1800.588
703.487	1799.612
703.615	1819.725
703.743	1792.350
703.871	1797.237
703.999	1785.513
704.127	1791.650
704.255	1770.138
704.383	1781.025
704.512	1766.375
704.640	1769.550
704.768	1747.763
704.896	1748.187
705.024	1746.975
705.152	1723.138
705.280	1733.787
705.408	1719.475
705.537	1731.112
705.665	1716.775
705.793	1706.037
705.921	1716.575
706.049	1728.138
706.177	1710.425
706.305	1691.900
706.433	1705.463
706.562	1682.888
706.690	1678.812
706.818	1668.987
706.946	1665.662
707.074	1662.638
707.202	1642.162
707.330	1644.412
707.458	1654.375
707.587	1645.963
707.715	1644.737
707.843	1639.200
707.971	1644.388
708.099	1627.050
708.227	1620.925
708.355	1614.325
708.483	1608.625
708.612	1611.312
708.740	1604.912
708.868	1589.725
708.996	1602.062
709.124	1609.350
709.252	1577.800
709.380	1577.388
709.508	1559.700
709.637	1560.900
709.765	1563.487
709.893	1553.362
710.021	1562.937
710.149	1536.013
710.277	1565.950
710.405	1550.537
710.533	1544.900
710.662	1538.487
710.790	1543.800
710.918	1519.550
711.046	1512.388
711.174	1523.400
711.302	1500.275
711.430	1497.388
711.558	1514.500
711.687	1506.025
711.815	1505.588
711.943	1510.600
712.071	1495.713
712.199	1493.912
712.327	1502.112
712.455	1481.000
712.583	1472.325
712.712	1495.650
712.840	1475.325
712.968	1464.075
713.096	1468.638
713.224	1450.513
713.352	1467.000
713.480	1435.350
713.608	1454.750
713.737	1446.088
713.865	1440.187
713.993	1426.112
714.121	1421.900
714.249	1430.412
714.377	1436.338
714.505	1427.275
714.633	1416.463
714.762	1415.362
714.890	1421.825
715.018	1406.925
715.146	1397.037
715.274	1386.513
715.402	1385.713
715.530	1401.838
715.658	1380.687
715.787	1383.338
715.915	1381.425
716.043	1368.150
716.171	1381.675
716.299	1404.575
716.427	1378.025
716.555	1371.225
716.683	1356.287
716.812	1351.225
716.940	1362.437
717.068	1324.588
717.196	1338.675
717.324	1335.325
717.452	1345.725
717.580	1334.350
717.708	1332.162
717.837	1331.575
717.965	1326.213
718.093	1313.800
718.221	1304.513
718.349	1311.812
718.477	1314.150
718.605	1300.725
718.733	1303.850
718.862	1289.800
718.990	1286.125
719.118	1290.263
719.246	1302.125
719.374	1296.725
719.502	1308.362
719.630	1284.750
719.758	1285.500
719.887	1264.375
720.015	1278.737
720.143	1268.187
720.271	1265.425
720.399	1267.437
720.527	1260.200
720.655	1249.888
720.783	1251.987
720.912	1249.388
721.040	1254.388
721.168	1239.975
721.296	1238.475
721.424	1233.088
721.552	1249.250
721.680	1226.662
721.808	1232.338
721.937	1233.300
722.065	1209.950
722.193	1200.487
722.321	1223.925
722.449	1202.338
722.577	1204.325
722.705	1193.525
722.833	1188.662
722.962	1200.487
723.090	1177.638
723.218	1182.787
723.346	1189.125
723.474	1187.700
723.602	1184.912
723.730	1173.013
723.858	1179.237
723.987	1176.362
724.115	1167.425
724.243	1157.300
724.371	1147.638
724.499	1159.062
724.627	1163.275
724.755	1151.875
724.883	1163.937
725.012	1142.925
725.140	1139.162
725.268	1146.112
725.396	1137.437
725.524	1125.650
725.652	1136.075
725.780	1125.600
725.908	1110.987
726.037	1121.650
726.165	1108.963
726.293	1095.763
726.421	1105.437
726.549	1104.500
726.677	1099.525
726.805	1103.350
726.933	1093.513
727.062	1083.400
727.190	1074.425
727.318	1094.138
727.446	1088.700
727.574	1100.500
727.702	1086.088
727.830	1069.525
727.958	1074.287
728.087	1065.075
728.215	1050.237
728.343	1058.750
728.471	1061.425
728.599	1044.350
728.727	1048.013
728.855	1057.162
728.983	1047.412
729.112	1044.287
729.240	1042.937
729.368	1041.275
729.496	1036.013
729.624	1048.675
729.752	1025.437
729.880	1022.175
730.008	1023.150
730.137	1015.350
730.265	1023.062
730.393	1017.125
730.521	1010.650
730.649	1011.013
730.777	1017.350
730.905	999.950
731.033	999.013
731.162	992.650
731.290	1003.200
731.418	996.400
731.546	1017.975
731.674	985.337
731.802	988.200
731.930	983.650
732.058	980.925
732.187	978.875
732.315	978.525
732.443	989.350
732.571	973.550
732.699	973.087
732.827	966.675
732.955	956.788
733.083	949.600
733.212	965.275
733.340	960.000
733.468	958.450
733.596	960.288
733.724	956.400
733.852	951.175
733.980	940.513
734.108	943.325
734.237	958.737
734.365	939.925
734.493	949.500
734.621	940.388
734.749	945.550
734.877	930.850
735.005	926.625
735.133	940.687
735.262	926.538
735.390	921.587
735.518	924.487
735.646	924.025
735.774	920.650
735.902	925.538
736.030	918.788
736.158	927.950
736.287	918.225
736.415	919.850
736.543	914.450
736.671	904.187
736.799	912.038
736.927	912.237
737.055	900.663
737.183	901.700
737.312	905.200
737.440	906.750
737.568	913.212
737.696	901.000
737.824	904.312
737.952	899.800
738.080	896.025
738.208	906.025
738.337	874.687
738.465	901.913
738.593	875.337
738.721	869.237
738.849	873.875
738.977	881.800
739.105	881.300
739.233	870.612
739.362	865.712
739.490	859.675
739.618	867.562
739.746	856.600
739.874	866.400
740.002	871.288
740.130	855.625
740.258	864.000
740.387	859.400
740.515	855.575
740.643	853.812
740.771	856.913
740.899	847.812
741.027	843.275
741.155	845.038
741.283	840.788
741.412	839.388
741.540	836.013
741.668	828.250
741.796	832.850
741.924	841.050
742.052	831.550
742.180	830.413
742.308	822.275
742.437	820.038
742.565	827.275
742.693	835.975
742.821	815.575
742.949	815.700
743.077	823.413
743.205	816.312
743.333	808.987
743.462	814.150
743.590	808.650
743.718	794.962
743.846	799.737
743.974	805.013
744.102	792.763
744.230	796.163
744.358	786.962
744.487	807.150
744.615	782.212
744.743	797.825
744.871	787.212
744.999	780.000
745.127	779.212
745.255	778.350
745.383	782.187
745.512	786.212
745.640	770.175
745.768	770.288
745.896	773.937
746.024	776.175
746.152	754.013
746.280	768.413
746.408	768.212
746.537	758.275
746.665	762.612
746.793	762.263
746.921	756.737
747.049	755.937
747.177	756.175
747.305	750.275
747.433	750.687
747.562	744.250
747.690	729.562
747.818	738.612
747.946	736.237
748.074	746.925
748.202	731.075
748.330	727.025
748.458	737.362
748.587	718.737
748.715	721.788
748.843	729.362
748.971	717.437
749.099	707.888
749.227	718.413
749.355	712.263
749.483	718.138
749.612	708.538
749.740	700.687
749.868	700.237
749.996	702.638
750.124	696.225
750.252	700.325
750.380	699.700
750.508	691.587
750.637	690.325
750.765	687.312
750.893	695.187
751.021	696.400
751.149	686.200
751.277	690.112
751.405	690.763
751.533	688.288
751.662	678.087
751.790	683.375
751.918	681.712
752.046	665.625
752.174	656.737
752.302	678.138
752.430	670.050
752.558	658.737
752.687	660.638
752.815	669.425
752.943	658.388
753.071	641.312
753.199	641.150
753.327	656.350
753.455	642.163
753.583	634.763
753.712	644.100
753.840	642.638
753.968	632.625
754.096	627.587
754.224	639.163
754.352	627.775
754.480	628.000
754.608	626.250
754.737	629.350
754.865	627.700
754.993	619.975
755.121	620.750
755.249	620.475
755.377	616.525
755.505	609.962
755.633	627.212
755.762	595.925
755.890	616.575
756.018	607.562
756.146	603.600
756.274	602.663
756.402	592.800
756.530	588.087
756.658	606.212
756.787	600.950
756.915	583.475
757.043	588.150
757.171	595.062
757.299	579.575
757.427	577.650
757.555	575.112
757.683	579.400
757.812	572.275
757.940	576.837
758.068	561.212
758.196	558.862
758.324	558.225
758.452	559.212
758.580	553.825
758.708	565.937
758.837	560.237
758.965	558.850
759.093	549.050
759.221	551.200
759.349	547.913
759.477	549.600
759.605	542.462
759.733	537.050
759.862	547.500
759.990	535.538
760.118	543.163
760.246	528.650
760.374	536.075
760.502	532.025
760.630	526.538
760.758	518.750
760.887	519.175
761.015	520.312
761.143	524.362
761.271	516.250
761.399	507.000
761.527	517.538
761.655	511.650
761.783	505.587
761.912	500.075
762.040	510.038
762.168	505.937
762.296	494.950
762.424	492.462
762.552	494.788
762.680	500.887
762.808	494.288
762.937	491.863
763.065	488.712
763.193	489.925
763.321	485.400
763.449	473.113
763.577	479.363
763.705	478.538
763.833	502.625
763.962	466.562
764.090	474.712
764.218	465.637
764.346	473.400
764.474	459.488
764.602	458.750
764.730	459.925
764.858	455.962
764.987	460.200
765.115	462.762
765.243	463.812
765.371	451.800
765.499	442.400
765.627	451.050
765.755	439.775
765.883	435.837
766.012	435.387
766.140	433.000
766.268	435.538
766.396	429.075
766.524	428.488
766.652	431.863
766.780	429.775
766.908	424.425
767.037	426.462
767.165	421.687
767.293	433.687
767.421	422.538
767.549	419.775
767.677	422.087
767.805	410.500
767.933	421.600
768.062	410.363
768.190	410.012
768.318	409.887
768.446	420.712
768.574	415.187
768.702	412.050
768.830	405.538
768.958	398.925
769.087	419.800
769.215	406.075
769.343	403.750
769.471	403.462
769.599	404.712
769.727	401.150
769.855	401.012
769.983	395.187
770.112	393.675
770.240	390.900
770.368	394.012
770.496	389.262
770.624	388.325
770.752	388.925
770.880	394.163
771.008	379.712
771.137	380.863
771.265	382.200
771.393	378.437
771.521	380.762
771.649	371.375
771.777	371.437
771.905	372.425
772.033	379.087
772.162	375.187
772.290	372.775
772.418	382.637
772.546	367.125
772.674	369.712
772.802	373.150
772.930	374.875
773.058	366.275
773.187	363.575
773.315	367.363
773.443	363.950
773.571	360.550
773.699	360.238
773.827	352.125
773.955	368.387
774.083	373.025
774.212	356.812
774.340	355.937
774.468	358.075
774.596	347.687
774.724	355.850
774.852	342.425
774.980	341.925
775.108	345.538
775.237	341.837
775.365	344.425
775.493	341.250
775.621	342.725
775.749	346.012
775.877	345.637
776.005	333.512
776.133	343.062
776.262	334.975
776.390	333.738
776.518	344.775
776.646	325.562
776.774	333.275
776.902	331.800
777.030	326.837
777.158	330.512
777.287	333.062
777.415	329.712
777.543	319.500
777.671	328.025
777.799	321.200
777.927	323.913
778.055	329.925
778.183	325.937
778.312	314.750
778.440	314.350
778.568	322.075
778.696	316.087
778.824	316.012
778.952	312.250
779.080	314.350
779.208	313.288
779.337	315.538
779.465	311.675
779.593	311.562
779.721	318.762
779.849	305.975
779.977	307.712
780.105	301.050
780.233	307.913
780.362	313.550
780.490	301.762
780.618	297.187
780.746	299.038
780.874	298.238
781.002	295.562
781.130	298.712
781.258	296.075
781.387	298.500
781.515	297.687
781.643	283.125
781.771	300.475
781.899	290.387
782.027	289.137
782.155	288.012
782.283	286.988
782.412	287.000
782.540	289.738
782.668	292.175
782.796	283.762
782.924	287.100
783.052	277.988
783.180	282.400
783.308	278.288
783.437	285.800
783.565	282.475
783.693	277.025
783.821	282.337
783.949	274.775
784.077	274.712
784.205	275.087
784.333	287.937
784.462	268.887
784.590	274.675
784.718	275.738
784.846	270.325
784.974	272.837
785.102	280.337
785.230	269.663
785.358	273.875
785.487	268.425
785.615	268.788
785.743	261.913
785.871	260.125
785.999	264.562
786.127	255.700
786.255	265.275
786.383	266.500
786.512	260.212
786.640	258.975
786.768	265.400
786.896	257.700
787.024	257.825
787.152	256.512
787.280	254.488
787.408	253.012
787.537	256.962
787.665	249.400
787.793	258.462
787.921	250.062
788.049	246.200
788.177	245.738
788.305	249.500
788.433	249.650
788.562	243.713
788.690	240.925
788.818	243.387
788.946	240.488
789.074	242.150
789.202	245.000
789.330	240.363
789.458	237.637
789.587	239.050
789.715	240.787
789.843	241.250
789.971	236.375
790.099	236.750
790.227	236.275
790.355	235.137
790.483	240.250
790.612	231.137
790.740	235.363
790.868	238.900
790.996	229.838
791.124	233.850
791.252	230.250
791.380	233.637
791.508	227.412
791.637	240.675
791.765	224.275
791.893	226.225
792.021	229.812
792.149	226.137
792.277	224.625
792.405	223.125
792.533	229.300
792.662	220.488
792.790	223.225
792.918	227.512
793.046	214.838
793.174	215.488
793.302	220.925
793.430	219.488
793.558	222.400
793.687	211.738
793.815	216.375
793.943	216.187
794.071	212.400
794.199	208.562
794.327	213.312
794.455	227.100
794.583	228.762
794.712	215.100
794.840	209.750
794.968	212.162
795.096	215.300
795.224	208.687
795.352	207.113
795.480	213.662
795.608	203.762
795.737	209.662
795.865	207.550
795.993	196.187
796.121	202.225
796.249	208.037
796.377	202.200
796.505	204.213
796.633	202.425
796.762	199.975
796.890	206.300
797.018	198.562
797.146	199.012
797.274	187.012
797.402	198.838
797.530	198.312
797.658	195.575
797.787	201.950
797.915	192.975
798.043	200.387
798.171	196.700
798.299	191.150
798.427	193.512
798.555	195.850
798.683	187.225
798.812	188.900
798.940	186.762
799.068	192.950
799.196	193.175
799.324	184.162
799.452	195.450
799.580	184.825
799.708	195.200
799.837	185.475
799.965	179.525
800.093	187.200
800.221	184.000
800.349	189.887
800.477	186.637
800.605	185.750
800.733	187.075
800.862	180.437
800.990	198.000
801.118	184.200
801.246	179.238
801.374	182.463
801.502	181.100
801.630	175.475
801.758	177.963
801.887	182.238
802.015	173.613
802.143	176.363
802.271	178.312
802.399	174.350
802.527	177.088
802.655	177.950
802.783	181.738
802.912	175.037
803.040	169.863
803.168	173.450
803.296	164.975
803.424	170.425
803.552	170.675
803.680	167.887
803.808	169.000
803.937	168.787
804.065	167.950
804.193	168.387
804.321	176.525
804.449	169.475
804.577	164.500
804.705	167.963
804.833	169.238
804.962	170.200
805.090	166.525
805.218	174.175
805.346	165.825
805.474	162.312
805.602	178.775
805.730	163.687
805.858	162.963
805.987	170.588
806.115	166.525
806.243	164.762
806.371	162.988
806.499	158.738
806.627	156.550
806.755	167.012
806.883	161.812
807.012	160.088
807.140	163.812
807.268	157.637
807.396	165.863
807.524	155.838
807.652	156.463
807.780	179.275
807.908	155.713
808.037	164.162
808.165	161.925
808.293	158.800
808.421	164.988
808.549	150.650
808.677	150.575
808.805	163.275
808.933	154.825
809.062	152.900
809.190	172.575
809.318	157.088
809.446	152.350
809.574	159.738
809.702	157.150
809.830	153.887
809.958	155.250
810.087	154.887
810.215	157.575
810.343	164.512
810.471	156.812
810.599	151.687
810.727	151.963
810.855	148.338
810.983	149.100
811.112	152.687
811.240	148.350
811.368	150.662
811.496	157.412
811.624	153.463
811.752	144.500
811.880	146.662
812.008	141.363
812.137	148.725
812.265	144.475
812.393	150.475
812.521	151.500
812.649	146.363
812.777	145.613
812.905	152.488
813.033	140.150
813.162	145.137
813.290	141.625
813.418	154.250
813.546	143.787
813.674	145.262
813.802	149.825
813.930	142.613
814.058	138.300
814.187	143.187
814.315	147.613
814.443	144.850
814.571	138.400
814.699	147.275
814.827	144.338
814.955	148.662
815.083	145.525
815.212	142.400
815.340	144.887
815.468	137.363
815.596	140.887
815.724	144.488
815.852	146.250
815.980	137.662
816.108	143.662
816.237	141.125
816.365	142.050
816.493	142.300
816.621	135.925
816.749	137.200
816.877	138.512
817.005	144.700
817.133	137.725
817.262	137.800
817.390	146.662
817.518	138.525
817.646	140.625
817.774	137.137
817.902	139.238
818.030	136.937
818.158	138.187
818.287	141.950
818.415	130.863
818.543	133.662
818.671	139.575
818.799	134.700
818.927	137.475
819.055	131.937
819.183	132.550
819.312	136.062
819.440	139.850
819.568	132.925
819.696	141.275
819.824	139.725
819.952	131.713
820.080	133.213
820.208	135.575
820.337	133.800
820.465	140.863
820.593	133.825
820.721	130.787
820.849	134.988
820.977	130.325
821.105	135.400
821.233	127.325
821.362	137.963
821.490	129.750
821.618	132.488
821.746	128.175
821.874	129.475
822.002	130.387
822.130	131.625
822.258	128.050
822.387	131.412
822.515	133.088
822.643	130.300
822.771	127.950
822.899	129.800
823.027	135.600
823.155	126.362
823.283	129.600
823.412	135.950
823.540	130.863
823.668	147.800
823.796	126.975
823.924	135.437
824.052	133.363
824.180	130.750
824.308	131.762
824.437	133.050
824.565	127.950
824.693	128.088
824.821	128.912
824.949	129.400
825.077	131.550
825.205	134.812
825.333	130.350
825.462	131.238
825.590	122.737
825.718	128.562
825.846	127.925
825.974	130.463
826.102	129.550
826.230	126.737
826.358	128.950
826.487	130.088
826.615	136.463
826.743	123.275
826.871	130.150
826.999	138.287
827.127	130.125
827.255	127.437
827.383	123.000
827.512	129.762
827.640	129.012
827.768	125.200
827.896	125.875
828.024	123.888
828.152	123.500
828.280	126.588
828.408	123.950
828.537	125.875
828.665	125.713
828.793	123.312
828.921	120.037
829.049	124.263
829.177	120.312
829.305	122.200
829.433	121.662
829.562	124.987
829.690	120.312
829.818	126.362
829.946	122.300
830.074	119.975
830.202	126.412
830.330	124.937
830.458	127.963
830.587	119.162
830.715	121.088
830.843	120.575
830.971	124.700
831.099	125.125
831.227	117.537
831.355	118.600
831.483	119.362
831.612	125.612
831.740	122.750
831.868	130.812
831.996	120.412
832.124	122.650
832.252	113.450
832.380	123.987
832.508	131.762
832.637	119.425
832.765	123.425
832.893	131.300
833.021	119.838
833.149	118.175
833.277	119.725
833.405	118.312
833.533	117.763
833.662	118.225
833.790	122.862
833.918	122.025
834.046	125.225
834.174	124.625
834.302	118.187
834.430	118.287
834.558	123.250
834.687	116.987
834.815	117.150
834.943	120.125
835.071	117.050
835.199	117.550
835.327	121.588
835.455	112.775
835.583	124.825
835.712	118.375
835.840	118.650
835.968	115.937
836.096	117.112
836.224	122.075
836.352	117.325
836.480	120.412
836.608	125.987
836.737	116.088
836.865	114.287
836.993	116.825
837.121	114.975
837.249	117.213
837.377	121.175
837.505	118.013
837.633	114.812
837.762	113.000
837.890	123.550
838.018	118.237
838.146	118.362
838.274	123.775
838.402	122.225
838.530	116.575
838.658	110.550
838.787	117.525
838.915	117.350
839.043	115.525
839.171	128.950
839.299	118.687
839.427	115.075
839.555	124.950
839.683	120.463
839.812	114.525
839.940	114.037
840.068	116.075
840.196	115.112
840.324	119.138
840.452	116.287
840.580	119.525
840.708	117.888
840.837	117.638
840.965	116.350
841.093	116.650
841.221	114.737
841.349	113.487
841.477	118.450
841.605	114.862
841.733	114.187
841.862	116.037
841.990	117.700
842.118	111.062
842.246	111.350
842.374	111.787
842.502	113.437
842.630	113.250
842.758	114.025
842.887	114.812
843.015	113.138
843.143	116.700
843.271	117.250
843.399	114.963
843.527	113.888
843.655	111.750
843.783	111.575
843.912	113.125
844.040	119.162
844.168	123.013
844.296	117.900
844.424	113.338
844.552	115.662
844.680	121.650
844.808	126.700
844.937	114.150
845.065	114.925
845.193	112.900
845.321	111.937
845.449	110.537
845.577	113.013
845.705	112.838
845.833	112.737
845.962	114.412
846.090	113.575
846.218	117.900
846.346	111.725
846.474	110.975
846.602	112.888
846.730	109.800
846.858	109.150
846.987	111.500
847.115	111.312
847.243	115.787
847.371	116.213
847.499	112.950
847.627	112.013
847.755	112.687
847.883	114.662
848.012	119.437
848.140	118.412
848.268	113.350
848.396	112.975
848.524	110.013
848.652	111.350
848.780	110.912
848.908	118.325
849.037	112.225
849.165	112.150
849.293	112.525
849.421	120.600
849.549	118.250
849.677	114.638
849.805	119.937
849.933	115.763
850.062	113.513
850.190	113.487
850.318	113.350
850.446	109.900
850.574	111.713
850.702	111.638
850.830	110.050
850.958	111.600
851.087	112.963
851.215	119.950
851.343	113.950
851.471	113.000
851.599	113.750
851.727	114.263
851.855	111.287
851.983	112.112
852.112	109.963
852.240	110.537
852.368	112.225
852.496	109.825
852.624	106.237
852.752	110.338
852.880	109.437
853.008	114.338
853.137	115.525
853.265	111.300
853.393	113.825
853.521	119.487
853.649	117.950
853.777	108.787
853.905	113.362
854.033	112.700
854.162	111.437
854.290	109.825
854.418	107.275
854.546	111.325
854.674	110.237
854.802	113.175
854.930	111.400
855.058	108.787
855.187	108.675
855.315	106.775
855.443	109.638
855.571	110.625
855.699	110.812
855.827	110.225
855.955	110.862
856.083	112.525
856.212	111.263
856.340	111.350
856.468	118.138
856.596	112.025
856.724	115.250
856.852	111.662
856.980	110.312
857.108	110.250
857.237	114.888
857.365	110.187
857.493	109.150
857.621	108.725
857.749	109.675
857.877	111.175
858.005	112.662
858.133	112.162
858.262	109.700
858.390	108.362
858.518	107.275
858.646	111.025
858.774	109.013
858.902	112.612
859.030	110.875
859.158	108.500
859.287	110.600
859.415	108.213
859.543	107.700
859.671	114.138
859.799	115.825
859.927	112.275
860.055	110.912
860.183	109.300
860.312	107.737
860.440	108.412
860.568	112.225
860.696	112.388
860.824	125.100
860.952	111.850
861.080	107.725
861.208	111.425
861.337	111.112
861.465	111.325
861.593	112.737
861.721	108.162
861.849	109.075
861.977	111.400
862.105	110.850
862.233	116.338
862.362	112.600
862.490	109.200
862.618	108.662
862.746	107.150
862.874	107.850
863.002	111.912
863.130	115.612
863.258	109.200
863.387	111.112
863.515	111.562
863.643	109.437
863.771	108.275
863.899	111.987
864.027	111.513
864.155	109.213
864.283	107.050
864.412	109.362
864.540	110.050
864.668	105.687
864.796	109.575
864.924	109.150
865.052	107.400
865.180	108.963
865.308	105.450
865.437	107.437
865.565	111.125
865.693	117.775
865.821	109.362
865.949	109.287
866.077	111.100
866.205	108.850
866.333	107.850
866.462	111.013
866.590	109.525
866.718	111.625
866.846	109.575
866.974	111.300
867.102	110.500
867.230	108.763
867.358	110.300
867.487	111.263
867.615	110.275
867.743	111.175
867.871	110.875
867.999	112.025
868.127	108.088
868.255	117.713
868.383	113.950
868.512	106.775
868.640	109.750
868.768	109.175
868.896	109.475
869.024	109.925
869.152	115.050
869.280	113.963
869.408	110.513
869.537	108.937
869.665	110.950
869.793	107.037
869.921	111.775
870.049	113.062
870.177	108.937
870.305	120.225
870.433	111.912
870.562	110.862
870.690	111.500
870.818	109.338
870.946	109.225
871.074	107.875
871.202	107.562
871.330	107.875
871.458	108.125
871.587	108.812
871.715	105.600
871.843	107.713
871.971	110.925
872.099	110.237
872.227	109.450
872.355	109.187
872.483	109.062
872.612	110.987
872.740	111.550
872.868	108.862
872.996	109.875
873.124	111.750
873.252	111.275
873.380	109.737
873.508	108.450
873.637	109.925
873.765	111.812
873.893	113.312
874.021	111.037
874.149	109.500
874.277	108.463
874.405	115.287
874.533	110.312
874.662	332.187
874.790	117.737
874.918	112.525
875.046	110.562
875.174	110.050
875.302	108.463
875.430	110.513
875.558	110.475
875.687	110.687
875.815	108.112
875.943	108.350
876.071	110.975
876.199	113.088
876.327	114.600
876.455	112.150
876.583	112.775
876.712	108.463
876.840	110.662
876.968	108.713
877.096	110.975
877.224	107.400
877.352	106.250
877.480	107.088
877.608	109.275
877.737	108.713
877.865	110.200
877.993	111.800
878.121	107.812
878.249	109.100
878.377	108.213
878.505	108.475
878.633	107.487
878.762	108.737
878.890	109.425
879.018	110.037
879.146	110.600
879.274	108.600
879.402	111.025
879.530	107.963
879.658	110.737
879.787	111.275
879.915	107.912
880.043	107.912
880.171	107.250
880.299	108.600
880.427	109.525
880.555	111.650
880.683	112.437
880.812	108.850
880.940	110.100
881.068	109.375
881.196	109.213
881.324	110.388
881.452	108.750
881.580	109.250
881.708	113.287
881.837	108.487
881.965	108.612
882.093	111.687
882.221	108.487
882.349	117.750
882.477	113.812
882.605	115.612
882.733	109.275
882.862	107.412
882.990	105.575
883.118	109.075
883.246	110.013
883.374	111.050
883.502	107.725
883.630	109.125
883.758	108.737
883.887	108.175
884.015	107.662
884.143	109.987
884.271	108.687
884.399	111.763
884.527	111.162
884.655	106.838
884.783	109.862
884.912	109.775
885.040	106.713
885.168	109.600
885.296	108.700
885.424	107.638
885.552	111.425
885.680	105.650
885.808	110.200
885.937	111.437
886.065	112.250
886.193	109.862
886.321	108.250
886.449	108.588
886.577	108.138
886.705	108.625
886.833	109.588
886.962	107.900
887.090	109.463
887.218	110.700
887.346	111.088
887.474	115.525
887.602	112.213
887.730	108.875
887.858	115.125
887.987	112.537
888.115	117.263
888.243	112.687
888.371	109.963
888.499	111.075
888.627	109.300
888.755	108.475
888.883	107.475
889.012	109.162
889.140	106.275
889.268	116.475
889.396	111.375
889.524	108.725
889.652	107.088
889.780	109.750
889.908	110.912
890.037	108.075
890.165	108.963
890.293	109.963
890.421	108.562
890.549	110.025
890.677	110.250
890.805	108.513
890.933	109.575
891.062	106.838
891.190	111.037
891.318	113.412
891.446	112.312
891.574	108.850
891.702	109.263
891.830	109.112
891.958	109.250
892.087	111.800
892.215	109.350
892.343	109.287
892.471	110.763
892.599	111.088
892.727	114.537
892.855	111.362
892.983	109.600
893.112	109.950
893.240	111.250
893.368	115.725
893.496	113.025
893.624	113.075
893.752	126.612
893.880	109.912
894.008	109.737
894.137	110.187
894.265	110.162
894.393	111.138
894.521	110.263
894.649	112.750
894.777	110.062
894.905	110.450
895.033	115.700
895.162	112.850
895.290	109.412
895.418	111.250
895.546	114.950
895.674	115.700
895.802	107.787
895.930	110.375
896.058	107.275
896.187	108.925
896.315	109.037
896.443	110.825
896.571	113.825
896.699	108.625
896.827	110.025
896.955	112.263
897.083	110.987
897.212	111.812
897.340	108.150
897.468	107.138
897.596	110.375
897.724	109.075
897.852	114.750
897.980	113.250
898.108	109.100
898.237	108.325
898.365	107.650
898.493	109.162
898.621	112.362
898.749	110.437
898.877	110.800
899.005	110.075
899.133	107.800
899.262	109.350
899.390	105.713
899.518	108.562
899.646	111.862
899.774	117.675
899.902	120.800
900.030	109.662
900.158	106.388
900.287	114.662
900.415	107.725
900.543	109.037
900.671	113.612
900.799	111.763
900.927	111.312
901.055	109.037
901.183	110.900
901.312	111.162
901.440	111.737
901.568	112.625
901.696	113.013
901.824	109.625
901.952	115.075
902.080	113.200
902.208	110.075
902.337	112.850
902.465	117.888
902.593	112.500
902.721	110.213
902.849	112.062
902.977	112.775
903.105	117.200
903.233	121.125
903.362	112.650
903.490	110.725
903.618	108.388
903.746	110.025
903.874	111.750
904.002	111.650
904.130	114.412
904.258	113.638
904.387	113.362
904.515	109.037
904.643	111.638
904.771	109.100
904.899	113.037
905.027	109.037
905.155	109.412
905.283	109.662
905.412	112.562
905.540	112.037
905.668	108.162
905.796	107.450
905.924	111.075
906.052	111.338
906.180	110.662
906.308	111.612
906.437	114.350
906.565	113.963
906.693	113.200
906.821	107.838
906.949	109.787
907.077	109.525
907.205	114.787
907.333	113.025
907.462	112.525
907.590	114.925
907.718	115.575
907.846	111.187
907.974	112.437
908.102	110.088
908.230	116.713
908.358	123.513
908.487	113.662
908.615	113.713
908.743	113.237
908.871	113.562
908.999	110.888
909.127	108.000
909.255	106.737
909.383	110.925
909.512	114.687
909.640	112.263
909.768	113.200
909.896	123.638
910.024	118.450
910.152	115.562
910.280	126.937
910.408	114.525
910.537	115.987
910.665	120.475
910.793	119.862
910.921	122.450
911.049	115.575
911.177	111.425
911.305	115.600
911.433	112.838
911.562	115.450
911.690	113.425
911.818	122.812
911.946	115.537
912.074	117.175
912.202	121.825
912.330	115.388
912.458	115.575
912.587	119.000
912.715	117.937
912.843	116.425
912.971	122.463
913.099	117.350
913.227	117.475
913.355	119.875
913.483	117.775
913.612	114.263
913.740	130.937
913.868	118.513
