sample1_at_750.00nm_cut_at_1008.00Y_01.dat
15.05.2023
10:52:32
cut middle at Y: 1008.00
top cursor: 1048 down cursor: 968 mean of: 80 lines , 2560 datapoints
wavelength(nm)	intensity[arb. units]
585.996	1389.562
586.124	1368.138
586.252	1359.037
586.380	1369.875
586.508	1370.500
586.637	1371.437
586.765	1372.138
586.893	1374.763
587.021	1373.125
587.149	1388.350
587.277	1400.312
587.405	1393.213
587.533	1385.025
587.662	1392.362
587.790	1394.338
587.918	1397.487
588.046	1405.287
588.174	1409.050
588.302	1421.187
588.430	1407.400
588.558	1413.787
588.687	1416.475
588.815	1440.675
588.943	1424.513
589.071	1432.300
589.199	1450.112
589.327	1420.900
589.455	1419.200
589.583	1439.875
589.712	1444.475
589.840	1441.825
589.968	1422.138
590.096	1438.825
590.224	1444.425
590.352	1435.925
590.480	1447.800
590.608	1449.987
590.737	1447.787
590.865	1453.725
590.993	1456.713
591.121	1463.662
591.249	1465.950
591.377	1456.625
591.505	1452.650
591.633	1459.737
591.762	1471.800
591.890	1479.200
592.018	1459.638
592.146	1476.537
592.274	1483.588
592.402	1465.213
592.530	1458.412
592.658	1475.875
592.787	1487.588
592.915	1478.450
593.043	1499.513
593.171	1491.325
593.299	1512.100
593.427	1507.125
593.555	1503.112
593.683	1515.325
593.812	1511.425
593.940	1512.713
594.068	1515.463
594.196	1540.312
594.324	1518.700
594.452	1534.800
594.580	1537.200
594.708	1531.463
594.837	1550.975
594.965	1557.725
595.093	1560.600
595.221	1566.138
595.349	1581.862
595.477	1583.312
595.605	1568.787
595.733	1591.562
595.862	1580.275
595.990	1592.463
596.118	1606.362
596.246	1597.150
596.374	1619.125
596.502	1627.912
596.630	1635.700
596.758	1631.787
596.887	1633.888
597.015	1653.213
597.143	1613.825
597.271	1646.062
597.399	1645.562
597.527	1656.000
597.655	1653.750
597.783	1663.263
597.912	1638.425
598.040	1650.912
598.168	1656.225
598.296	1655.687
598.424	1639.687
598.552	1656.150
598.680	1656.800
598.808	1637.350
598.937	1674.037
599.065	1667.263
599.193	1663.362
599.321	1635.600
599.449	1666.750
599.577	1659.338
599.705	1664.662
599.833	1648.225
599.962	1648.200
600.090	1665.162
600.218	1654.062
600.346	1672.588
600.474	1661.125
600.602	1677.312
600.730	1679.575
600.858	1668.287
600.987	1675.150
601.115	1672.062
601.243	1665.550
601.371	1672.575
601.499	1688.513
601.627	1691.787
601.755	1700.237
601.883	1710.362
602.012	1716.862
602.140	1710.625
602.268	1717.937
602.396	1732.787
602.524	1715.963
602.652	1737.062
602.780	1734.375
602.908	1749.100
603.037	1754.850
603.165	1752.412
603.293	1776.550
603.421	1784.362
603.549	1773.900
603.677	1814.088
603.805	1779.525
603.933	1827.687
604.062	1795.325
604.190	1830.612
604.318	1812.362
604.446	1837.513
604.574	1838.100
604.702	1853.588
604.830	1850.850
604.958	1853.825
605.087	1887.662
605.215	1885.700
605.343	1888.263
605.471	1895.263
605.599	1909.350
605.727	1916.088
605.855	1927.575
605.983	1912.963
606.112	1938.350
606.240	1952.300
606.368	1936.812
606.496	1961.412
606.624	1930.700
606.752	1946.425
606.880	1945.675
607.008	1962.975
607.137	1977.900
607.265	1984.963
607.393	1987.000
607.521	1982.375
607.649	1963.800
607.777	1974.075
607.905	1976.500
608.033	1993.112
608.162	1975.825
608.290	1989.875
608.418	2013.388
608.546	1991.263
608.674	2021.513
608.802	2006.713
608.930	2023.950
609.058	2003.075
609.187	2006.000
609.315	2007.675
609.443	2016.125
609.571	2025.325
609.699	2012.025
609.827	2014.100
609.955	2011.263
610.083	2009.525
610.212	2006.600
610.340	2007.675
610.468	2019.725
610.596	2031.638
610.724	2020.275
610.852	2041.025
610.980	2013.375
611.108	2037.237
611.237	2035.862
611.365	2037.287
611.493	2030.775
611.621	2052.300
611.749	2054.488
611.877	2060.925
612.005	2055.113
612.133	2042.100
612.262	2062.775
612.390	2067.963
612.518	2059.400
612.646	2049.950
612.774	2059.613
612.902	2077.787
613.030	2069.963
613.158	2079.287
613.287	2117.450
613.415	2097.687
613.543	2091.800
613.671	2093.675
613.799	2117.325
613.927	2104.225
614.055	2105.350
614.183	2135.175
614.312	2114.088
614.440	2129.675
614.568	2133.863
614.696	2153.525
614.824	2151.137
614.952	2133.475
615.080	2163.537
615.208	2177.200
615.337	2186.675
615.465	2182.738
615.593	2204.437
615.721	2207.088
615.849	2207.238
615.977	2218.050
616.105	2216.025
616.233	2225.825
616.362	2250.875
616.490	2222.012
616.618	2243.238
616.746	2232.050
616.874	2256.800
617.002	2263.762
617.130	2279.800
617.258	2292.950
617.387	2258.937
617.515	2272.437
617.643	2280.675
617.771	2294.363
617.899	2304.812
618.027	2274.988
618.155	2318.450
618.283	2290.387
618.412	2305.088
618.540	2321.125
618.668	2308.537
618.796	2309.900
618.924	2368.713
619.052	2326.137
619.180	2310.225
619.308	2340.387
619.437	2327.238
619.565	2343.662
619.693	2331.437
619.821	2346.488
619.949	2310.463
620.077	2349.650
620.205	2355.500
620.333	2346.287
620.462	2363.363
620.590	2392.625
620.718	2354.400
620.846	2393.900
620.974	2410.963
621.102	2375.988
621.230	2354.075
621.358	2423.537
621.487	2360.125
621.615	2378.287
621.743	2395.775
621.871	2380.137
621.999	2407.125
622.127	2390.450
622.255	2374.387
622.383	2394.787
622.512	2395.500
622.640	2451.575
622.768	2386.075
622.896	2401.963
623.024	2390.637
623.152	2450.925
623.280	2431.412
623.408	2392.463
623.537	2420.338
623.665	2396.713
623.793	2432.125
623.921	2403.062
624.049	2398.187
624.177	2406.850
624.305	2424.375
624.433	2427.512
624.562	2424.650
624.690	2420.387
624.818	2447.425
624.946	2529.338
625.074	2452.988
625.202	2433.400
625.330	2416.412
625.458	2467.875
625.587	2418.950
625.715	2467.562
625.843	2508.312
625.971	2453.363
626.099	2449.575
626.227	2449.863
626.355	2433.175
626.483	2506.637
626.612	2443.725
626.740	2419.675
626.868	2483.200
626.996	2455.887
627.124	2456.537
627.252	2447.912
627.380	2467.850
627.508	2462.312
627.637	2465.800
627.765	2493.562
627.893	2504.088
628.021	2477.575
628.149	2504.137
628.277	2514.363
628.405	2534.988
628.533	2474.300
628.662	2521.187
628.790	2493.300
628.918	2497.662
629.046	2508.300
629.174	2509.713
629.302	2593.300
629.430	2521.100
629.558	2531.488
629.687	2548.287
629.815	2543.400
629.943	2562.450
630.071	2561.625
630.199	2568.463
630.327	2580.287
630.455	2545.187
630.583	2623.738
630.712	2605.950
630.840	2584.762
630.968	2632.375
631.096	2591.400
631.224	2586.988
631.352	2605.262
631.480	2613.287
631.608	2601.613
631.737	2699.900
631.865	2762.463
631.993	2612.600
632.121	2718.350
632.249	2689.500
632.377	2691.162
632.505	2672.950
632.633	2627.412
632.762	2694.937
632.890	2757.662
633.018	2664.025
633.146	2684.287
633.274	2712.537
633.402	2679.463
633.530	2672.625
633.658	2803.037
633.787	2657.863
633.915	2738.137
634.043	2694.675
634.171	2695.412
634.299	2745.025
634.427	2788.463
634.555	2731.375
634.683	2711.488
634.812	2722.037
634.940	2718.963
635.068	2675.775
635.196	2726.088
635.324	2729.812
635.452	2787.475
635.580	2690.238
635.708	2715.225
635.837	2745.000
635.965	2752.762
636.093	2736.575
636.221	2679.250
636.349	2776.125
636.477	2685.137
636.605	2843.887
636.733	2691.100
636.862	2690.963
636.990	2725.113
637.118	2756.887
637.246	2728.963
637.374	2680.437
637.502	2689.625
637.630	2699.387
637.758	2708.625
637.887	2679.275
638.015	2679.400
638.143	2701.450
638.271	2682.713
638.399	2701.125
638.527	2674.225
638.655	2654.175
638.783	2798.562
638.912	2714.762
639.040	2679.125
639.168	2717.275
639.296	2684.025
639.424	2786.175
639.552	2666.762
639.680	2702.213
639.808	2716.875
639.937	2653.350
640.065	2685.575
640.193	2746.488
640.321	2664.025
640.449	2744.187
640.577	2738.363
640.705	2689.812
640.833	2768.338
640.962	2688.463
641.090	2678.050
641.218	2683.187
641.346	2692.075
641.474	2699.300
641.602	2661.713
641.730	2679.437
641.858	2683.113
641.987	2739.988
642.115	2688.925
642.243	2732.613
642.371	2713.412
642.499	2715.850
642.627	2711.875
642.755	2768.512
642.883	2776.650
643.012	2730.475
643.140	2701.550
643.268	2720.300
643.396	2736.900
643.524	2846.375
643.652	2721.488
643.780	2739.687
643.908	2734.750
644.037	2841.437
644.165	2716.300
644.293	2743.700
644.421	2728.150
644.549	2801.625
644.677	2738.975
644.805	2789.475
644.933	2743.238
645.062	2749.588
645.190	2753.500
645.318	2831.338
645.446	2780.450
645.574	2790.225
645.702	2762.613
645.830	2937.687
645.958	2768.825
646.087	2904.775
646.215	2772.350
646.343	2931.500
646.471	2823.800
646.599	2840.875
646.727	2778.025
646.855	2792.225
646.983	2829.238
647.112	2785.963
647.240	2947.125
647.368	2777.200
647.496	2857.800
647.624	2756.000
647.752	2767.687
647.880	2800.113
648.008	2799.613
648.137	2805.113
648.265	2779.825
648.393	2782.787
648.521	2800.662
648.649	2805.475
648.777	2789.238
648.905	2782.137
649.033	2807.387
649.162	2802.662
649.290	2769.325
649.418	2827.863
649.546	2805.187
649.674	2840.088
649.802	2794.750
649.930	2931.088
650.058	2748.088
650.187	2799.775
650.315	2742.238
650.443	2801.412
650.571	2761.637
650.699	2744.062
650.827	2754.363
650.955	2769.512
651.083	2756.125
651.212	2813.500
651.340	2829.000
651.468	2770.312
651.596	2726.912
651.724	2722.238
651.852	2754.937
651.980	2729.925
652.108	2837.025
652.237	2754.512
652.365	2816.500
652.493	2713.988
652.621	2725.075
652.749	2797.963
652.877	2702.713
653.005	2757.850
653.133	2702.937
653.262	2759.463
653.390	2679.137
653.518	2810.225
653.646	2715.975
653.774	2839.937
653.902	2743.950
654.030	2681.850
654.158	2709.963
654.287	2676.137
654.415	2708.463
654.543	2717.137
654.671	2748.488
654.799	2680.050
654.927	2669.187
655.055	2660.550
655.183	2693.825
655.312	2696.875
655.440	2699.588
655.568	2669.037
655.696	2737.575
655.824	2758.137
655.952	2676.213
656.080	2640.275
656.208	2783.375
656.337	2666.325
656.465	2675.800
656.593	2709.525
656.721	2651.713
656.849	2707.800
656.977	2661.912
657.105	2656.950
657.233	2631.450
657.362	2638.650
657.490	2638.437
657.618	2659.050
657.746	2635.550
657.874	2611.350
658.002	2591.250
658.130	2626.275
658.258	2609.025
658.387	2629.250
658.515	2584.425
658.643	2638.825
658.771	2603.325
658.899	2619.238
659.027	2610.437
659.155	2616.863
659.283	2721.463
659.412	2594.738
659.540	2666.213
659.668	2580.687
659.796	2618.562
659.924	2659.500
660.052	2580.287
660.180	2611.412
660.308	2575.588
660.437	2592.475
660.565	2576.963
660.693	2568.750
660.821	2568.200
660.949	2559.850
661.077	2554.912
661.205	2577.375
661.333	2542.900
661.462	2620.687
661.590	2582.613
661.718	2648.637
661.846	2593.875
661.974	2647.625
662.102	2557.887
662.230	2571.588
662.358	2541.937
662.487	2543.113
662.615	2530.600
662.743	2530.687
662.871	2538.950
662.999	2517.650
663.127	2526.512
663.255	2578.225
663.383	2581.750
663.512	2527.950
663.640	2520.575
663.768	2508.875
663.896	2539.562
664.024	2525.925
664.152	2528.488
664.280	2543.463
664.408	2502.375
664.537	2526.975
664.665	2488.075
664.793	2475.037
664.921	2488.650
665.049	2503.937
665.177	2505.050
665.305	2488.275
665.433	2472.350
665.562	2464.775
665.690	2461.375
665.818	2534.475
665.946	2472.075
666.074	2470.375
666.202	2450.900
666.330	2485.988
666.458	2454.963
666.587	2451.700
666.715	2476.275
666.843	2443.325
666.971	2436.338
667.099	2463.937
667.227	2463.213
667.355	2453.150
667.483	2440.675
667.612	2437.125
667.740	2448.637
667.868	2476.800
667.996	2430.537
668.124	2429.650
668.252	2437.000
668.380	2422.037
668.508	2437.088
668.637	2417.838
668.765	2399.850
668.893	2423.338
669.021	2405.300
669.149	2420.812
669.277	2406.887
669.405	2377.375
669.533	2414.738
669.662	2459.738
669.790	2389.925
669.918	2409.650
670.046	2380.250
670.174	2410.863
670.302	2393.075
670.430	2355.775
670.558	2378.863
670.687	2372.713
670.815	2410.850
670.943	2349.375
671.071	2340.137
671.199	2352.650
671.327	2338.213
671.455	2340.725
671.583	2337.512
671.712	2379.588
671.840	2325.062
671.968	2306.800
672.096	2292.562
672.224	2309.613
672.352	2323.300
672.480	2306.375
672.608	2280.937
672.737	2286.488
672.865	2315.125
672.993	2259.488
673.121	2266.262
673.249	2277.300
673.377	2245.725
673.505	2262.800
673.633	2230.762
673.762	2240.537
673.890	2242.887
674.018	2262.600
674.146	2224.812
674.274	2234.100
674.402	2232.375
674.530	2218.463
674.658	2215.250
674.787	2193.075
674.915	2175.775
675.043	2179.338
675.171	2183.287
675.299	2180.400
675.427	2165.762
675.555	2164.725
675.683	2164.213
675.812	2136.963
675.940	2136.000
676.068	2153.525
676.196	2139.937
676.324	2133.412
676.452	2107.262
676.580	2102.375
676.708	2104.275
676.837	2127.800
676.965	2087.725
677.093	2113.312
677.221	2093.713
677.349	2069.912
677.477	2069.000
677.605	2042.437
677.733	2068.450
677.862	2046.713
677.990	2042.088
678.118	2041.862
678.246	2015.525
678.374	2016.650
678.502	2006.075
678.630	2006.450
678.758	1992.075
678.887	2002.125
679.015	2006.638
679.143	1992.412
679.271	1975.463
679.399	1980.825
679.527	1968.900
679.655	1961.975
679.783	1973.562
679.912	1959.175
680.040	1945.025
680.168	1933.575
680.296	1916.187
680.424	1925.062
680.552	1922.600
680.680	1924.050
680.808	1909.888
680.937	1909.750
681.065	1897.675
681.193	1895.975
681.321	1905.625
681.449	1899.412
681.577	1890.750
681.705	1873.350
681.833	1866.000
681.962	1861.850
682.090	1876.437
682.218	1866.850
682.346	1852.862
682.474	1862.763
682.602	1839.700
682.730	1848.687
682.858	1832.275
682.987	1830.562
683.115	1823.588
683.243	1816.237
683.371	1815.575
683.499	1797.400
683.627	1821.250
683.755	1806.700
683.883	1793.200
684.012	1797.175
684.140	1783.875
684.268	1776.213
684.396	1800.987
684.524	1787.075
684.652	1775.138
684.780	1773.263
684.908	1772.312
685.037	1769.100
685.165	1754.763
685.293	1762.050
685.421	1737.162
685.549	1729.737
685.677	1736.625
685.805	1725.487
685.933	1733.850
686.062	1720.050
686.190	1722.437
686.318	1724.175
686.446	1723.000
686.574	1707.350
686.702	1716.375
686.830	1702.037
686.958	1690.263
687.087	1696.987
687.215	1683.300
687.343	1691.850
687.471	1699.850
687.599	1654.725
687.727	1671.088
687.855	1681.775
687.983	1659.200
688.112	1663.550
688.240	1644.537
688.368	1660.312
688.496	1650.463
688.624	1645.237
688.752	1642.963
688.880	1644.325
689.008	1625.112
689.137	1625.213
689.265	1626.412
689.393	1606.412
689.521	1614.900
689.649	1615.912
689.777	1595.963
689.905	1596.925
690.033	1591.713
690.162	1570.700
690.290	1573.750
690.418	1575.575
690.546	1606.075
690.674	1573.425
690.802	1557.138
690.930	1568.263
691.058	1555.737
691.187	1535.450
691.315	1566.500
691.443	1547.725
691.571	1539.963
691.699	1520.237
691.827	1521.325
691.955	1522.013
692.083	1508.725
692.212	1509.800
692.340	1513.912
692.468	1505.825
692.596	1490.900
692.724	1494.463
692.852	1475.800
692.980	1474.300
693.108	1472.750
693.237	1461.625
693.365	1458.875
693.493	1461.225
693.621	1435.650
693.749	1443.537
693.877	1442.600
694.005	1433.037
694.133	1431.138
694.262	1414.375
694.390	1404.013
694.518	1401.800
694.646	1390.675
694.774	1408.500
694.902	1392.638
695.030	1411.650
695.158	1373.425
695.287	1374.975
695.415	1370.638
695.543	1367.200
695.671	1356.200
695.799	1342.787
695.927	1328.037
696.055	1341.300
696.183	1350.638
696.312	1338.612
696.440	1315.713
696.568	1320.925
696.696	1309.687
696.824	1305.400
696.952	1298.375
697.080	1291.213
697.208	1305.525
697.337	1287.025
697.465	1270.350
697.593	1269.912
697.721	1268.213
697.849	1253.487
697.977	1270.112
698.105	1266.200
698.233	1256.487
698.362	1234.750
698.490	1246.925
698.618	1244.125
698.746	1231.612
698.874	1235.312
699.002	1245.687
699.130	1221.737
699.258	1211.562
699.387	1183.050
699.515	1188.950
699.643	1199.888
699.771	1201.850
699.899	1186.213
700.027	1182.425
700.155	1185.687
700.283	1176.375
700.412	1163.775
700.540	1157.850
700.668	1146.600
700.796	1153.763
700.924	1143.213
701.052	1146.875
701.180	1135.600
701.308	1138.675
701.437	1121.937
701.565	1139.513
701.693	1115.475
701.821	1129.500
701.949	1119.450
702.077	1092.562
702.205	1109.900
702.333	1099.350
702.462	1094.575
702.590	1089.862
702.718	1083.037
702.846	1077.475
702.974	1084.375
703.102	1072.838
703.230	1075.925
703.358	1044.088
703.487	1031.000
703.615	1058.062
703.743	1051.763
703.871	1048.600
703.999	1020.600
704.127	1025.263
704.255	1021.362
704.383	1031.638
704.512	1015.562
704.640	1019.400
704.768	989.562
704.896	998.900
705.024	992.737
705.152	985.025
705.280	987.725
705.408	977.800
705.537	977.200
705.665	967.600
705.793	973.850
705.921	954.650
706.049	969.487
706.177	956.388
706.305	949.475
706.433	943.825
706.562	953.437
706.690	937.050
706.818	923.325
706.946	938.725
707.074	920.187
707.202	921.538
707.330	916.775
707.458	906.725
707.587	907.475
707.715	905.487
707.843	894.712
707.971	900.862
708.099	893.600
708.227	879.888
708.355	880.925
708.483	873.413
708.612	879.263
708.740	870.187
708.868	868.913
708.996	869.337
709.124	867.163
709.252	855.937
709.380	858.413
709.508	836.587
709.637	830.487
709.765	844.700
709.893	830.875
710.021	833.500
710.149	820.663
710.277	839.862
710.405	828.175
710.533	822.362
710.662	813.987
710.790	817.525
710.918	808.975
711.046	806.987
711.174	801.163
711.302	795.800
711.430	790.725
711.558	793.538
711.687	783.687
711.815	783.525
711.943	787.288
712.071	773.788
712.199	777.212
712.327	770.425
712.455	769.025
712.583	769.375
712.712	775.825
712.840	749.600
712.968	752.187
713.096	757.888
713.224	748.712
713.352	746.737
713.480	745.587
713.608	739.625
713.737	732.263
713.865	726.600
713.993	725.513
714.121	710.425
714.249	721.362
714.377	714.038
714.505	724.462
714.633	714.812
714.762	702.462
714.890	698.525
715.018	703.750
715.146	691.263
715.274	698.950
715.402	688.075
715.530	695.737
715.658	683.587
715.787	687.187
715.915	678.163
716.043	680.425
716.171	677.312
716.299	692.300
716.427	671.337
716.555	671.413
716.683	663.025
716.812	668.600
716.940	661.812
717.068	646.187
717.196	658.062
717.324	653.475
717.452	652.000
717.580	643.725
717.708	639.462
717.837	648.475
717.965	641.425
718.093	626.862
718.221	629.775
718.349	631.275
718.477	627.475
718.605	614.362
718.733	626.737
718.862	609.975
718.990	610.812
719.118	618.175
719.246	608.763
719.374	607.312
719.502	613.175
719.630	609.737
719.758	597.888
719.887	603.950
720.015	602.025
720.143	591.763
720.271	596.038
720.399	591.100
720.527	585.638
720.655	583.975
720.783	578.237
720.912	579.025
721.040	587.550
721.168	573.087
721.296	570.950
721.424	572.650
721.552	560.837
721.680	559.050
721.808	561.712
721.937	561.538
722.065	554.937
722.193	547.650
722.321	554.625
722.449	547.050
722.577	552.612
722.705	539.350
722.833	535.150
722.962	541.225
723.090	522.475
723.218	530.650
723.346	532.712
723.474	529.200
723.602	530.125
723.730	520.500
723.858	531.975
723.987	517.125
724.115	524.175
724.243	518.550
724.371	514.562
724.499	516.087
724.627	509.562
724.755	513.013
724.883	509.238
725.012	508.725
725.140	503.387
725.268	506.475
725.396	498.913
725.524	485.450
725.652	496.325
725.780	489.712
725.908	484.637
726.037	484.137
726.165	484.738
726.293	474.600
726.421	472.312
726.549	479.525
726.677	469.512
726.805	472.825
726.933	473.950
727.062	463.562
727.190	466.625
727.318	466.125
727.446	461.550
727.574	464.925
727.702	453.650
727.830	454.925
727.958	457.475
728.087	449.363
728.215	448.562
728.343	442.413
728.471	446.325
728.599	440.100
728.727	445.525
728.855	439.575
728.983	435.750
729.112	426.687
729.240	439.262
729.368	432.675
729.496	430.000
729.624	434.238
729.752	422.812
729.880	428.363
730.008	427.950
730.137	418.663
730.265	424.325
730.393	420.913
730.521	407.863
730.649	412.350
730.777	416.462
730.905	406.450
731.033	411.175
731.162	407.350
731.290	413.113
731.418	408.962
731.546	426.113
731.674	399.350
731.802	400.512
731.930	404.137
732.058	393.288
732.187	392.613
732.315	393.988
732.443	397.425
732.571	381.562
732.699	391.175
732.827	385.762
732.955	374.462
733.083	374.500
733.212	375.350
733.340	379.575
733.468	374.725
733.596	376.337
733.724	369.913
733.852	377.625
733.980	373.062
734.108	381.275
734.237	378.325
734.365	361.875
734.493	371.637
734.621	365.600
734.749	360.275
734.877	358.400
735.005	363.475
735.133	365.712
735.262	358.750
735.390	360.762
735.518	354.925
735.646	352.062
735.774	354.925
735.902	359.325
736.030	354.012
736.158	359.363
736.287	344.825
736.415	349.238
736.543	343.087
736.671	341.275
736.799	343.788
736.927	348.375
737.055	339.550
737.183	336.587
737.312	341.012
737.440	341.900
737.568	356.275
737.696	337.550
737.824	329.562
737.952	339.738
738.080	334.113
738.208	336.025
738.337	329.750
738.465	340.575
738.593	327.750
738.721	317.212
738.849	318.600
738.977	323.163
739.105	323.200
739.233	319.400
739.362	314.113
739.490	314.375
739.618	312.913
739.746	314.288
739.874	328.837
740.002	312.400
740.130	306.587
740.258	316.000
740.387	311.937
740.515	301.462
740.643	307.850
740.771	306.725
740.899	308.488
741.027	301.788
741.155	304.600
741.283	296.562
741.412	303.887
741.540	293.637
741.668	297.100
741.796	298.587
741.924	297.375
742.052	297.825
742.180	298.837
742.308	299.575
742.437	293.150
742.565	296.700
742.693	291.262
742.821	287.437
742.949	286.363
743.077	292.750
743.205	287.775
743.333	289.512
743.462	290.525
743.590	285.137
743.718	280.137
743.846	278.387
743.974	277.575
744.102	280.988
744.230	280.525
744.358	274.437
744.487	286.238
744.615	274.712
744.743	282.812
744.871	274.788
744.999	279.250
745.127	273.125
745.255	266.238
745.383	268.075
745.512	275.425
745.640	266.375
745.768	268.125
745.896	266.637
746.024	267.863
746.152	260.038
746.280	262.488
746.408	267.975
746.537	264.413
746.665	271.762
746.793	261.212
746.921	258.800
747.049	258.587
747.177	262.900
747.305	256.312
747.433	260.212
747.562	254.075
747.690	253.162
747.818	255.312
747.946	253.262
748.074	264.325
748.202	251.850
748.330	253.200
748.458	256.675
748.587	255.950
748.715	240.075
748.843	250.437
748.971	243.537
749.099	243.537
749.227	250.150
749.355	239.812
749.483	243.338
749.612	243.662
749.740	233.162
749.868	242.988
749.996	238.125
750.124	243.925
750.252	238.488
750.380	238.200
750.508	239.075
750.637	233.875
750.765	240.713
750.893	230.637
751.021	234.262
751.149	228.338
751.277	240.812
751.405	239.150
751.533	238.338
751.662	232.200
751.790	243.588
751.918	237.900
752.046	226.437
752.174	220.838
752.302	236.475
752.430	231.325
752.558	229.250
752.687	226.213
752.815	233.588
752.943	226.488
753.071	220.687
753.199	224.037
753.327	229.613
753.455	218.262
753.583	214.450
753.712	219.650
753.840	219.363
753.968	217.062
754.096	211.713
754.224	215.700
754.352	211.400
754.480	212.412
754.608	214.375
754.737	213.213
754.865	213.775
754.993	213.338
755.121	205.137
755.249	219.662
755.377	208.787
755.505	204.800
755.633	222.812
755.762	206.850
755.890	217.325
756.018	216.662
756.146	203.312
756.274	211.338
756.402	199.650
756.530	208.637
756.658	213.900
756.787	200.375
756.915	199.187
757.043	205.687
757.171	206.725
757.299	203.512
757.427	201.463
757.555	206.512
757.683	204.700
757.812	199.588
757.940	202.300
758.068	201.287
758.196	189.412
758.324	195.588
758.452	195.700
758.580	190.262
758.708	201.875
758.837	191.975
758.965	201.075
759.093	193.937
759.221	188.287
759.349	195.012
759.477	187.512
759.605	190.575
759.733	189.187
759.862	193.875
759.990	188.012
760.118	191.287
760.246	178.350
760.374	186.312
760.502	189.287
760.630	186.012
760.758	180.162
760.887	181.250
761.015	179.225
761.143	183.250
761.271	181.287
761.399	181.988
761.527	182.400
761.655	181.238
761.783	178.950
761.912	177.675
762.040	178.875
762.168	177.725
762.296	177.600
762.424	175.225
762.552	177.463
762.680	181.738
762.808	175.213
762.937	178.687
763.065	179.125
763.193	177.812
763.321	173.437
763.449	171.838
763.577	168.713
763.705	176.300
763.833	195.137
763.962	170.713
764.090	170.225
764.218	177.050
764.346	176.675
764.474	170.687
764.602	174.012
764.730	171.762
764.858	168.450
764.987	174.050
765.115	178.912
765.243	178.525
765.371	169.200
765.499	164.812
765.627	165.137
765.755	164.525
765.883	161.775
766.012	164.100
766.140	163.988
766.268	167.225
766.396	164.825
766.524	160.213
766.652	161.963
766.780	159.363
766.908	165.488
767.037	161.863
767.165	162.012
767.293	170.787
767.421	163.075
767.549	159.800
767.677	165.262
767.805	160.475
767.933	163.062
768.062	161.562
768.190	159.650
768.318	157.213
768.446	173.275
768.574	165.275
768.702	165.275
768.830	157.537
768.958	158.050
769.087	164.250
769.215	160.950
769.343	154.550
769.471	158.037
769.599	163.475
769.727	156.725
769.855	157.937
769.983	150.113
770.112	155.000
770.240	162.613
770.368	152.863
770.496	155.963
770.624	151.375
770.752	157.275
770.880	168.062
771.008	154.775
771.137	154.412
771.265	156.662
771.393	153.750
771.521	154.025
771.649	150.525
771.777	145.175
771.905	152.387
772.033	156.437
772.162	154.125
772.290	154.350
772.418	159.550
772.546	148.600
772.674	149.175
772.802	153.863
772.930	154.713
773.058	147.725
773.187	151.037
773.315	151.463
773.443	153.637
773.571	149.963
773.699	146.613
773.827	148.275
773.955	151.162
774.083	159.963
774.212	144.350
774.340	146.850
774.468	148.550
774.596	149.550
774.724	154.562
774.852	143.863
774.980	149.937
775.108	147.863
775.237	141.075
775.365	143.412
775.493	144.762
775.621	142.488
775.749	143.575
775.877	145.613
776.005	142.562
776.133	145.512
776.262	142.975
776.390	139.238
776.518	152.750
776.646	145.775
776.774	138.012
776.902	145.325
777.030	143.312
777.158	140.863
777.287	144.963
777.415	142.037
777.543	138.162
777.671	138.350
777.799	136.437
777.927	142.500
778.055	143.338
778.183	143.312
778.312	134.275
778.440	139.588
778.568	142.725
778.696	135.963
778.824	144.238
778.952	140.687
779.080	138.025
779.208	144.425
779.337	141.537
779.465	142.500
779.593	138.450
779.721	142.262
779.849	137.675
779.977	139.238
780.105	137.463
780.233	139.738
780.362	144.463
780.490	140.600
780.618	136.650
780.746	137.700
780.874	136.937
781.002	136.113
781.130	135.437
781.258	134.537
781.387	142.488
781.515	135.650
781.643	132.250
781.771	141.775
781.899	137.950
782.027	133.925
782.155	136.363
782.283	130.838
782.412	135.725
782.540	140.463
782.668	135.613
782.796	128.062
782.924	129.488
783.052	129.150
783.180	137.975
783.308	128.162
783.437	133.738
783.565	136.150
783.693	136.575
783.821	137.650
783.949	130.713
784.077	132.650
784.205	136.787
784.333	141.300
784.462	129.562
784.590	132.613
784.718	132.338
784.846	124.713
784.974	135.588
785.102	140.025
785.230	131.762
785.358	141.725
785.487	132.812
785.615	131.350
785.743	127.963
785.871	127.763
785.999	133.325
786.127	125.213
786.255	134.675
786.383	136.125
786.512	131.025
786.640	129.937
786.768	135.375
786.896	128.562
787.024	131.262
787.152	127.975
787.280	127.213
787.408	127.325
787.537	127.025
787.665	128.637
787.793	129.863
787.921	129.162
788.049	123.750
788.177	123.875
788.305	123.450
788.433	126.425
788.562	125.875
788.690	121.200
788.818	124.112
788.946	125.987
789.074	124.025
789.202	125.200
789.330	126.612
789.458	123.825
789.587	124.900
789.715	124.187
789.843	128.750
789.971	122.400
790.099	119.937
790.227	124.187
790.355	121.700
790.483	127.725
790.612	127.275
790.740	125.300
790.868	132.850
790.996	124.787
791.124	123.662
791.252	124.600
791.380	125.537
791.508	120.112
791.637	134.037
791.765	120.362
791.893	119.425
792.021	128.637
792.149	124.125
792.277	122.513
792.405	126.088
792.533	132.262
792.662	119.175
792.790	121.338
792.918	127.687
793.046	122.575
793.174	123.662
793.302	124.175
793.430	125.750
793.558	129.875
793.687	118.437
793.815	123.437
793.943	125.937
794.071	121.537
794.199	118.287
794.327	121.950
794.455	139.800
794.583	136.175
794.712	125.763
794.840	120.138
794.968	118.888
795.096	124.700
795.224	116.350
795.352	118.750
795.480	124.200
795.608	120.588
795.737	123.775
795.865	121.550
795.993	116.037
796.121	118.687
796.249	118.312
796.377	119.812
796.505	123.800
796.633	121.963
796.762	119.463
796.890	126.700
797.018	118.900
797.146	119.600
797.274	115.263
797.402	115.763
797.530	120.325
797.658	118.612
797.787	127.737
797.915	121.450
798.043	123.700
798.171	123.937
798.299	118.088
798.427	117.612
798.555	118.975
798.683	117.750
798.812	116.650
798.940	117.187
799.068	117.450
799.196	116.600
799.324	117.750
799.452	121.250
799.580	120.325
799.708	127.537
799.837	117.112
799.965	115.950
800.093	117.388
800.221	119.225
800.349	121.812
800.477	122.437
800.605	121.900
800.733	123.750
800.862	120.625
800.990	134.213
801.118	123.175
801.246	116.287
801.374	117.388
801.502	122.638
801.630	116.162
801.758	118.112
801.887	120.612
802.015	113.687
802.143	112.825
802.271	111.700
802.399	117.375
802.527	117.463
802.655	115.112
802.783	124.037
802.912	116.187
803.040	116.025
803.168	115.275
803.296	113.037
803.424	112.575
803.552	114.050
803.680	113.888
803.808	112.112
803.937	113.850
804.065	118.950
804.193	114.338
804.321	113.950
804.449	112.425
804.577	114.963
804.705	116.800
804.833	112.963
804.962	111.812
805.090	112.750
805.218	115.838
805.346	115.550
805.474	114.625
805.602	125.862
805.730	114.100
805.858	112.838
805.987	122.437
806.115	119.112
806.243	114.787
806.371	110.562
806.499	111.775
806.627	112.775
806.755	116.912
806.883	112.825
807.012	116.275
807.140	112.112
807.268	114.775
807.396	110.450
807.524	111.600
807.652	111.937
807.780	126.550
807.908	114.013
808.037	121.412
808.165	119.125
808.293	117.025
808.421	117.050
808.549	112.775
808.677	108.287
808.805	118.812
808.933	114.450
809.062	113.275
809.190	134.450
809.318	116.412
809.446	114.025
809.574	111.562
809.702	116.150
809.830	109.925
809.958	117.713
810.087	113.437
810.215	116.825
810.343	121.862
810.471	118.675
810.599	113.013
810.727	113.638
810.855	111.437
810.983	113.562
811.112	114.450
811.240	116.500
811.368	115.550
811.496	123.475
811.624	112.325
811.752	111.612
811.880	108.975
812.008	109.700
812.137	110.650
812.265	110.225
812.393	113.700
812.521	114.037
812.649	112.088
812.777	115.150
812.905	113.588
813.033	108.838
813.162	110.838
813.290	108.525
813.418	111.662
813.546	111.713
813.674	112.562
813.802	114.612
813.930	110.112
814.058	109.725
814.187	108.900
814.315	112.125
814.443	110.388
814.571	109.125
814.699	118.425
814.827	111.525
814.955	110.600
815.083	112.312
815.212	113.575
815.340	113.838
815.468	110.287
815.596	109.800
815.724	109.638
815.852	111.537
815.980	111.450
816.108	111.138
816.237	111.687
816.365	111.250
816.493	109.950
816.621	108.050
816.749	110.075
816.877	108.787
817.005	110.925
817.133	111.638
817.262	107.375
817.390	109.325
817.518	108.550
817.646	114.625
817.774	113.300
817.902	116.437
818.030	109.037
818.158	114.275
818.287	108.237
818.415	108.450
818.543	109.000
818.671	116.237
818.799	109.300
818.927	113.662
819.055	108.562
819.183	106.138
819.312	111.400
819.440	115.950
819.568	111.925
819.696	114.875
819.824	112.963
819.952	107.513
820.080	108.975
820.208	110.062
820.337	108.825
820.465	112.763
820.593	107.875
820.721	106.812
820.849	110.062
820.977	105.325
821.105	105.838
821.233	107.625
821.362	111.275
821.490	107.687
821.618	106.037
821.746	108.838
821.874	107.662
822.002	109.850
822.130	112.850
822.258	108.088
822.387	108.450
822.515	110.638
822.643	109.787
822.771	108.550
822.899	109.062
823.027	109.575
823.155	107.625
823.283	110.963
823.412	108.525
823.540	112.600
823.668	126.937
823.796	107.237
823.924	111.425
824.052	115.125
824.180	109.725
824.308	107.237
824.437	107.537
824.565	106.575
824.693	109.300
824.821	110.225
824.949	110.550
825.077	109.600
825.205	110.812
825.333	110.600
825.462	108.963
825.590	106.963
825.718	115.138
825.846	107.625
825.974	109.562
826.102	110.775
826.230	110.025
826.358	108.675
826.487	107.537
826.615	105.937
826.743	107.612
826.871	113.062
826.999	111.950
827.127	115.112
827.255	110.950
827.383	106.763
827.512	111.600
827.640	109.525
827.768	107.487
827.896	108.150
828.024	107.200
828.152	109.912
828.280	109.037
828.408	108.237
828.537	105.175
828.665	105.737
828.793	106.975
828.921	105.687
829.049	106.175
829.177	106.175
829.305	108.112
829.433	108.888
829.562	106.862
829.690	107.838
829.818	110.575
829.946	109.175
830.074	106.300
830.202	110.675
830.330	111.713
830.458	118.100
830.587	107.362
830.715	106.862
830.843	105.800
830.971	107.650
831.099	112.838
831.227	106.787
831.355	106.000
831.483	106.275
831.612	110.725
831.740	110.250
831.868	118.150
831.996	108.787
832.124	107.850
832.252	104.825
832.380	105.475
832.508	107.350
832.637	110.250
832.765	109.187
832.893	114.400
833.021	110.750
833.149	108.362
833.277	105.812
833.405	106.437
833.533	104.800
833.662	106.513
833.790	104.750
833.918	109.425
834.046	106.850
834.174	112.775
834.302	107.862
834.430	104.950
834.558	108.500
834.687	106.500
834.815	108.550
834.943	106.112
835.071	105.775
835.199	104.787
835.327	105.750
835.455	105.662
835.583	107.550
835.712	106.100
835.840	107.388
835.968	107.888
836.096	110.275
836.224	112.750
836.352	108.263
836.480	109.125
836.608	108.588
836.737	105.463
836.865	106.437
836.993	104.350
837.121	106.225
837.249	106.925
837.377	107.600
837.505	105.725
837.633	107.250
837.762	104.687
837.890	105.487
838.018	113.100
838.146	106.713
838.274	108.612
838.402	112.625
838.530	104.950
838.658	103.687
838.787	108.612
838.915	108.075
839.043	107.500
839.171	109.050
839.299	108.037
839.427	105.150
839.555	113.225
839.683	108.737
839.812	106.838
839.940	104.750
840.068	110.625
840.196	106.275
840.324	106.450
840.452	107.588
840.580	115.200
840.708	105.213
840.837	109.200
840.965	108.150
841.093	111.200
841.221	108.025
841.349	109.250
841.477	110.000
841.605	111.775
841.733	105.675
841.862	105.638
841.990	108.675
842.118	106.862
842.246	104.562
842.374	105.037
842.502	106.175
842.630	105.963
842.758	108.638
842.887	107.737
843.015	109.675
843.143	111.537
843.271	110.400
843.399	107.925
843.527	106.463
843.655	105.375
843.783	104.612
843.912	105.588
844.040	109.075
844.168	112.475
844.296	111.037
844.424	107.987
844.552	108.250
844.680	108.525
844.808	109.150
844.937	106.000
845.065	104.838
845.193	107.575
845.321	105.375
845.449	105.775
845.577	105.912
845.705	108.600
845.833	108.825
845.962	103.787
846.090	105.013
846.218	105.987
846.346	106.388
846.474	105.000
846.602	104.850
846.730	104.550
846.858	102.525
846.987	104.888
847.115	107.388
847.243	106.713
847.371	112.787
847.499	106.638
847.627	104.312
847.755	104.500
847.883	105.888
848.012	110.412
848.140	107.350
848.268	106.150
848.396	104.800
848.524	103.513
848.652	106.138
848.780	105.138
848.908	105.213
849.037	109.487
849.165	107.525
849.293	106.588
849.421	108.625
849.549	106.213
849.677	105.225
849.805	110.050
849.933	108.325
850.062	107.000
850.190	103.888
850.318	104.925
850.446	107.162
850.574	106.350
850.702	108.888
850.830	107.775
850.958	105.912
851.087	105.900
851.215	111.800
851.343	106.825
851.471	106.312
851.599	107.525
851.727	109.825
851.855	106.812
851.983	108.513
852.112	109.062
852.240	106.450
852.368	107.237
852.496	108.112
852.624	104.963
852.752	106.650
852.880	106.588
853.008	110.975
853.137	109.200
853.265	103.537
853.393	107.912
853.521	113.000
853.649	112.138
853.777	105.713
853.905	105.838
854.033	107.300
854.162	106.125
854.290	104.600
854.418	103.838
854.546	105.662
854.674	105.487
854.802	105.638
854.930	107.225
855.058	102.975
855.187	104.550
855.315	103.638
855.443	100.950
855.571	103.862
855.699	104.725
855.827	105.475
855.955	104.737
856.083	106.750
856.212	106.062
856.340	105.825
856.468	107.412
856.596	107.463
856.724	108.875
856.852	106.550
856.980	103.875
857.108	105.412
857.237	109.013
857.365	108.775
857.493	105.425
857.621	105.138
857.749	104.263
857.877	103.687
858.005	107.725
858.133	104.763
858.262	106.713
858.390	104.225
858.518	102.475
858.646	104.013
858.774	106.513
858.902	104.575
859.030	104.963
859.158	104.037
859.287	108.237
859.415	108.600
859.543	104.125
859.671	108.750
859.799	108.612
859.927	105.338
860.055	104.838
860.183	105.687
860.312	106.325
860.440	105.112
860.568	110.275
860.696	108.338
860.824	119.675
860.952	104.375
861.080	106.888
861.208	107.950
861.337	106.237
861.465	105.750
861.593	110.088
861.721	104.463
861.849	105.725
861.977	106.463
862.105	107.562
862.233	103.975
862.362	106.725
862.490	105.175
862.618	104.263
862.746	105.263
862.874	107.763
863.002	106.825
863.130	108.638
863.258	107.487
863.387	107.600
863.515	105.800
863.643	106.338
863.771	105.650
863.899	107.437
864.027	105.687
864.155	104.350
864.283	105.187
864.412	105.588
864.540	106.088
864.668	103.950
864.796	106.550
864.924	104.525
865.052	105.138
865.180	104.975
865.308	103.687
865.437	104.937
865.565	107.650
865.693	104.888
865.821	105.362
865.949	104.225
866.077	105.812
866.205	105.237
866.333	104.412
866.462	106.537
866.590	107.088
866.718	105.725
866.846	107.000
866.974	106.112
867.102	109.350
867.230	104.950
867.358	108.150
867.487	105.812
867.615	103.737
867.743	104.975
867.871	107.700
867.999	105.312
868.127	105.588
868.255	114.350
868.383	106.000
868.512	104.000
868.640	106.513
868.768	105.775
868.896	103.725
869.024	106.675
869.152	105.612
869.280	107.825
869.408	104.700
869.537	106.437
869.665	105.912
869.793	105.062
869.921	109.575
870.049	112.225
870.177	106.325
870.305	115.463
870.433	108.662
870.562	104.787
870.690	103.775
870.818	104.638
870.946	104.100
871.074	105.237
871.202	105.037
871.330	105.775
871.458	104.050
871.587	104.100
871.715	104.025
871.843	106.713
871.971	109.975
872.099	106.150
872.227	104.025
872.355	105.812
872.483	105.125
872.612	108.562
872.740	108.763
872.868	106.037
872.996	107.375
873.124	106.125
873.252	108.175
873.380	106.475
873.508	107.287
873.637	106.550
873.765	110.450
873.893	107.562
874.021	106.237
874.149	105.338
874.277	104.150
874.405	110.987
874.533	104.950
874.662	342.175
874.790	105.987
874.918	110.825
875.046	105.825
875.174	105.325
875.302	104.800
875.430	104.625
875.558	106.500
875.687	109.750
875.815	105.575
875.943	105.050
876.071	109.213
876.199	107.800
876.327	110.000
876.455	105.737
876.583	104.812
876.712	107.763
876.840	108.612
876.968	105.638
877.096	104.312
877.224	104.487
877.352	103.475
877.480	105.662
877.608	106.725
877.737	104.487
877.865	103.225
877.993	108.763
878.121	106.250
878.249	105.350
878.377	104.237
878.505	105.750
878.633	104.250
878.762	105.662
878.890	105.088
879.018	102.537
879.146	106.037
879.274	106.800
879.402	106.025
879.530	104.987
879.658	105.112
879.787	108.325
879.915	106.525
880.043	104.225
880.171	104.838
880.299	105.950
880.427	106.888
880.555	107.900
880.683	109.100
880.812	107.537
880.940	105.775
881.068	109.400
881.196	105.375
881.324	103.963
881.452	105.625
881.580	107.287
881.708	106.713
881.837	105.588
881.965	105.713
882.093	105.250
882.221	101.812
882.349	109.500
882.477	111.675
882.605	108.875
882.733	107.013
882.862	105.250
882.990	105.100
883.118	106.850
883.246	108.138
883.374	108.225
883.502	106.287
883.630	104.937
883.758	104.075
883.887	103.838
884.015	103.525
884.143	103.912
884.271	108.550
884.399	106.737
884.527	103.987
884.655	105.700
884.783	104.187
884.912	105.388
885.040	105.812
885.168	103.150
885.296	104.525
885.424	106.475
885.552	108.500
885.680	106.575
885.808	103.388
885.937	108.987
886.065	107.725
886.193	104.975
886.321	104.713
886.449	104.838
886.577	104.713
886.705	107.287
886.833	107.225
886.962	104.100
887.090	105.125
887.218	105.300
887.346	107.263
887.474	115.937
887.602	109.487
887.730	106.287
887.858	105.350
887.987	106.175
888.115	109.562
888.243	108.300
888.371	108.362
888.499	105.513
888.627	104.687
888.755	105.325
888.883	106.650
889.012	106.013
889.140	105.975
889.268	112.900
889.396	118.875
889.524	105.450
889.652	104.150
889.780	106.700
889.908	106.987
890.037	106.162
890.165	108.600
890.293	108.600
890.421	105.175
890.549	108.500
890.677	107.537
890.805	105.475
890.933	105.263
891.062	107.025
891.190	109.200
891.318	108.625
891.446	106.987
891.574	104.275
891.702	107.838
891.830	107.138
891.958	108.588
892.087	110.375
892.215	108.925
892.343	108.562
892.471	106.463
892.599	107.338
892.727	113.388
892.855	108.175
892.983	107.900
893.112	107.650
893.240	110.300
893.368	109.400
893.496	108.763
893.624	108.600
893.752	108.150
893.880	103.838
894.008	104.213
894.137	109.425
894.265	110.450
894.393	107.200
894.521	108.437
894.649	109.513
894.777	106.650
894.905	106.812
895.033	113.187
895.162	109.213
895.290	111.237
895.418	111.000
895.546	114.075
895.674	108.225
895.802	107.487
895.930	107.912
896.058	106.187
896.187	105.513
896.315	106.513
896.443	110.463
896.571	111.775
896.699	106.700
896.827	108.400
896.955	110.025
897.083	107.062
897.212	105.638
897.340	105.963
897.468	108.825
897.596	106.925
897.724	107.375
897.852	109.612
897.980	109.912
898.108	105.550
898.237	105.125
898.365	107.237
898.493	108.575
898.621	106.862
898.749	104.362
898.877	107.838
899.005	105.737
899.133	106.800
899.262	105.112
899.390	107.375
899.518	107.925
899.646	107.000
899.774	112.700
899.902	115.250
900.030	107.888
900.158	106.588
900.287	109.675
900.415	107.825
900.543	106.138
900.671	110.750
900.799	109.000
900.927	109.037
901.055	106.662
901.183	108.838
901.312	106.800
901.440	111.200
901.568	113.763
901.696	110.037
901.824	109.287
901.952	113.100
902.080	106.925
902.208	111.175
902.337	111.213
902.465	110.763
902.593	108.700
902.721	109.500
902.849	111.662
902.977	111.088
903.105	112.862
903.233	115.013
903.362	110.662
903.490	110.850
903.618	107.662
903.746	111.150
903.874	107.200
904.002	107.975
904.130	113.312
904.258	111.338
904.387	109.875
904.515	107.200
904.643	106.112
904.771	105.812
904.899	107.200
905.027	109.362
905.155	105.000
905.283	108.213
905.412	111.088
905.540	108.825
905.668	106.075
905.796	106.588
905.924	109.062
906.052	108.400
906.180	108.662
906.308	111.275
906.437	109.787
906.565	111.237
906.693	110.125
906.821	106.062
906.949	106.375
907.077	107.162
907.205	112.525
907.333	112.300
907.462	112.700
907.590	111.912
907.718	110.025
907.846	108.388
907.974	109.312
908.102	106.725
908.230	110.338
908.358	121.362
908.487	112.300
908.615	110.612
908.743	111.112
908.871	110.213
908.999	110.912
909.127	114.138
909.255	108.737
909.383	111.275
909.512	114.662
909.640	108.112
909.768	108.750
909.896	117.750
910.024	113.600
910.152	112.475
910.280	120.187
910.408	111.062
910.537	113.975
910.665	113.112
910.793	110.850
910.921	117.175
911.049	112.513
911.177	111.588
911.305	118.325
911.433	114.513
911.562	110.812
911.690	112.062
911.818	121.250
911.946	116.450
912.074	113.475
912.202	113.513
912.330	114.200
912.458	110.437
912.587	115.987
912.715	116.062
912.843	116.900
912.971	119.612
913.099	114.725
913.227	114.025
913.355	115.612
913.483	114.825
913.612	115.338
913.740	140.350
913.868	115.850
