sample11_PP_at_750.00nm_cut_at_1008.00Y_01.dat
15.05.2023
11:08:49
cut middle at Y: 1008.00
top cursor: 1048 down cursor: 968 mean of: 80 lines , 2560 datapoints
wavelength(nm)	intensity[arb. units]
585.996	1060.050
586.124	1035.225
586.252	1035.100
586.380	1039.875
586.508	1044.900
586.637	1046.287
586.765	1034.963
586.893	1044.350
587.021	1064.475
587.149	1063.725
587.277	1059.300
587.405	1059.175
587.533	1043.675
587.662	1064.800
587.790	1081.950
587.918	1072.963
588.046	1075.275
588.174	1060.675
588.302	1085.300
588.430	1081.588
588.558	1069.112
588.687	1068.937
588.815	1103.937
588.943	1084.475
589.071	1081.800
589.199	1085.275
589.327	1080.963
589.455	1075.125
589.583	1082.263
589.712	1097.362
589.840	1090.588
589.968	1084.513
590.096	1086.425
590.224	1089.100
590.352	1095.375
590.480	1078.150
590.608	1093.325
590.737	1103.838
590.865	1116.525
590.993	1108.388
591.121	1105.200
591.249	1112.037
591.377	1098.463
591.505	1114.175
591.633	1105.312
591.762	1118.200
591.890	1129.100
592.018	1108.838
592.146	1122.612
592.274	1130.925
592.402	1115.950
592.530	1126.925
592.658	1142.612
592.787	1132.750
592.915	1137.700
593.043	1134.400
593.171	1137.250
593.299	1161.550
593.427	1158.362
593.555	1157.650
593.683	1156.287
593.812	1155.713
593.940	1164.900
594.068	1163.275
594.196	1201.463
594.324	1164.162
594.452	1185.850
594.580	1185.287
594.708	1177.050
594.837	1194.425
594.965	1195.950
595.093	1202.150
595.221	1206.650
595.349	1212.650
595.477	1214.825
595.605	1211.963
595.733	1247.725
595.862	1234.662
595.990	1219.275
596.118	1232.075
596.246	1237.025
596.374	1256.463
596.502	1255.075
596.630	1246.650
596.758	1254.325
596.887	1262.450
597.015	1284.263
597.143	1235.362
597.271	1263.763
597.399	1275.400
597.527	1270.187
597.655	1266.838
597.783	1286.150
597.912	1277.062
598.040	1289.187
598.168	1288.763
598.296	1278.888
598.424	1278.200
598.552	1292.800
598.680	1279.013
598.808	1280.787
598.937	1290.400
599.065	1299.888
599.193	1294.112
599.321	1278.588
599.449	1307.088
599.577	1289.700
599.705	1290.888
599.833	1306.612
599.962	1286.888
600.090	1301.987
600.218	1305.888
600.346	1308.888
600.474	1316.487
600.602	1317.687
600.730	1329.838
600.858	1330.562
600.987	1321.200
601.115	1336.812
601.243	1320.362
601.371	1336.450
601.499	1338.700
601.627	1338.412
601.755	1359.825
601.883	1354.213
602.012	1365.825
602.140	1357.200
602.268	1371.287
602.396	1365.025
602.524	1366.925
602.652	1377.687
602.780	1373.513
602.908	1389.650
603.037	1386.588
603.165	1413.912
603.293	1426.787
603.421	1437.450
603.549	1412.175
603.677	1447.312
603.805	1430.000
603.933	1439.550
604.062	1448.638
604.190	1460.125
604.318	1451.650
604.446	1474.275
604.574	1466.525
604.702	1473.825
604.830	1486.775
604.958	1504.300
605.087	1507.500
605.215	1502.400
605.343	1516.025
605.471	1520.638
605.599	1534.075
605.727	1533.987
605.855	1553.900
605.983	1541.138
606.112	1564.725
606.240	1563.175
606.368	1573.100
606.496	1569.200
606.624	1571.237
606.752	1588.687
606.880	1581.575
607.008	1592.575
607.137	1608.150
607.265	1593.175
607.393	1613.300
607.521	1621.450
607.649	1603.763
607.777	1614.787
607.905	1605.925
608.033	1622.787
608.162	1637.850
608.290	1620.737
608.418	1648.525
608.546	1640.013
608.674	1668.975
608.802	1647.138
608.930	1656.388
609.058	1662.525
609.187	1658.750
609.315	1659.112
609.443	1678.812
609.571	1675.200
609.699	1682.850
609.827	1679.900
609.955	1686.125
610.083	1676.100
610.212	1692.800
610.340	1698.687
610.468	1688.537
610.596	1705.487
610.724	1699.550
610.852	1716.500
610.980	1712.375
611.108	1721.612
611.237	1718.125
611.365	1737.312
611.493	1737.237
611.621	1733.513
611.749	1749.362
611.877	1768.150
612.005	1765.687
612.133	1762.487
612.262	1753.475
612.390	1774.950
612.518	1789.588
612.646	1783.763
612.774	1793.800
612.902	1812.687
613.030	1810.687
613.158	1816.675
613.287	1832.912
613.415	1836.838
613.543	1844.062
613.671	1834.713
613.799	1860.725
613.927	1849.787
614.055	1868.825
614.183	1890.237
614.312	1883.575
614.440	1880.787
614.568	1915.725
614.696	1919.537
614.824	1913.625
614.952	1916.537
615.080	1946.475
615.208	1950.050
615.337	1952.675
615.465	1962.700
615.593	1987.375
615.721	2008.925
615.849	1998.713
615.977	2005.862
616.105	2006.088
616.233	2017.725
616.362	2037.737
616.490	2015.575
616.618	2047.975
616.746	2048.437
616.874	2087.412
617.002	2081.262
617.130	2104.162
617.258	2086.100
617.387	2108.963
617.515	2117.988
617.643	2119.150
617.771	2133.887
617.899	2145.500
618.027	2139.287
618.155	2156.287
618.283	2145.200
618.412	2166.825
618.540	2182.937
618.668	2189.350
618.796	2183.113
618.924	2214.963
619.052	2210.300
619.180	2210.537
619.308	2232.912
619.437	2228.613
619.565	2226.488
619.693	2226.963
619.821	2246.725
619.949	2241.625
620.077	2259.963
620.205	2258.450
620.333	2263.950
620.462	2294.062
620.590	2307.687
620.718	2295.050
620.846	2317.338
620.974	2351.463
621.102	2324.075
621.230	2332.262
621.358	2365.863
621.487	2337.687
621.615	2354.800
621.743	2399.950
621.871	2365.075
621.999	2384.787
622.127	2377.125
622.255	2385.650
622.383	2415.875
622.512	2421.150
622.640	2444.175
622.768	2425.537
622.896	2429.463
623.024	2413.900
623.152	2492.488
623.280	2454.850
623.408	2454.562
623.537	2465.537
623.665	2478.588
623.793	2499.812
623.921	2484.250
624.049	2493.150
624.177	2521.075
624.305	2542.375
624.433	2557.900
624.562	2562.500
624.690	2561.325
624.818	2591.100
624.946	2663.037
625.074	2594.887
625.202	2589.025
625.330	2585.100
625.458	2634.525
625.587	2633.187
625.715	2634.425
625.843	2692.162
625.971	2653.650
626.099	2651.738
626.227	2684.700
626.355	2657.875
626.483	2735.800
626.612	2673.075
626.740	2675.725
626.868	2732.100
626.996	2705.325
627.124	2716.262
627.252	2694.387
627.380	2755.650
627.508	2747.463
627.637	2746.050
627.765	2764.825
627.893	2787.000
628.021	2788.250
628.149	2798.312
628.277	2829.000
628.405	2894.412
628.533	2795.450
628.662	2878.050
628.790	2850.037
628.918	2854.550
629.046	2869.325
629.174	2887.162
629.302	3006.275
629.430	2922.500
629.558	2917.812
629.687	2948.713
629.815	2983.437
629.943	3009.925
630.071	3035.300
630.199	3026.525
630.327	3064.700
630.455	3023.950
630.583	3114.787
630.712	3081.887
630.840	3108.625
630.968	3147.338
631.096	3100.213
631.224	3136.200
631.352	3138.750
631.480	3179.075
631.608	3161.238
631.737	3291.225
631.865	3377.037
631.993	3210.175
632.121	3345.225
632.249	3332.312
632.377	3326.475
632.505	3346.838
632.633	3268.500
632.762	3357.437
632.890	3441.675
633.018	3340.012
633.146	3417.738
633.274	3403.613
633.402	3407.900
633.530	3388.275
633.658	3572.787
633.787	3425.075
633.915	3491.738
634.043	3452.562
634.171	3474.875
634.299	3519.213
634.427	3597.550
634.555	3546.525
634.683	3521.738
634.812	3533.050
634.940	3569.350
635.068	3538.762
635.196	3585.287
635.324	3606.512
635.452	3680.787
635.580	3600.838
635.708	3612.088
635.837	3683.037
635.965	3658.400
636.093	3659.400
636.221	3655.250
636.349	3750.425
636.477	3671.475
636.605	3830.475
636.733	3640.588
636.862	3691.912
636.990	3713.437
637.118	3790.588
637.246	3765.988
637.374	3722.050
637.502	3748.500
637.630	3735.600
637.758	3760.850
637.887	3750.875
638.015	3767.925
638.143	3799.113
638.271	3800.600
638.399	3795.363
638.527	3802.250
638.655	3805.650
638.783	3964.887
638.912	3879.537
639.040	3865.500
639.168	3906.588
639.296	3885.000
639.424	4022.125
639.552	3908.350
639.680	3967.562
639.808	3935.925
639.937	3949.900
640.065	3940.575
640.193	4073.713
640.321	3980.950
640.449	4051.300
640.577	4127.212
640.705	4055.725
640.833	4174.512
640.962	4052.213
641.090	4058.075
641.218	4062.437
641.346	4135.725
641.474	4184.275
641.602	4141.825
641.730	4158.937
641.858	4177.175
641.987	4223.163
642.115	4193.562
642.243	4268.750
642.371	4257.288
642.499	4253.450
642.627	4329.462
642.755	4386.950
642.883	4397.988
643.012	4334.087
643.140	4335.775
643.268	4362.475
643.396	4398.600
643.524	4531.350
643.652	4459.812
643.780	4438.538
643.908	4478.300
644.037	4616.687
644.165	4512.400
644.293	4539.163
644.421	4512.562
644.549	4609.187
644.677	4567.962
644.805	4640.675
644.933	4587.625
645.062	4644.300
645.190	4683.925
645.318	4759.925
645.446	4697.887
645.574	4716.387
645.702	4707.087
645.830	4935.962
645.958	4748.475
646.087	4952.562
646.215	4774.262
646.343	4999.387
646.471	4882.600
646.599	4907.525
646.727	4874.250
646.855	4920.100
646.983	4956.538
647.112	4886.525
647.240	5113.137
647.368	4971.962
647.496	5039.687
647.624	4975.300
647.752	4984.100
647.880	5001.937
648.008	5019.962
648.137	5033.462
648.265	5047.288
648.393	5066.038
648.521	5113.437
648.649	5136.337
648.777	5126.450
648.905	5110.700
649.033	5137.712
649.162	5145.087
649.290	5163.762
649.418	5222.587
649.546	5233.788
649.674	5252.500
649.802	5218.625
649.930	5377.675
650.058	5215.113
650.187	5272.475
650.315	5237.225
650.443	5317.725
650.571	5274.250
650.699	5267.125
650.827	5279.887
650.955	5324.962
651.083	5322.962
651.212	5399.837
651.340	5411.637
651.468	5365.050
651.596	5382.288
651.724	5368.875
651.852	5392.512
651.980	5358.175
652.108	5488.562
652.237	5444.125
652.365	5529.350
652.493	5396.413
652.621	5410.462
652.749	5511.538
652.877	5410.250
653.005	5484.363
653.133	5472.300
653.262	5501.687
653.390	5483.225
653.518	5635.100
653.646	5510.387
653.774	5718.525
653.902	5557.887
654.030	5517.262
654.158	5567.163
654.287	5580.887
654.415	5598.775
654.543	5634.562
654.671	5659.450
654.799	5647.725
654.927	5591.337
655.055	5596.400
655.183	5652.113
655.312	5655.663
655.440	5671.475
655.568	5673.238
655.696	5768.663
655.824	5807.137
655.952	5710.625
656.080	5695.775
656.208	5891.225
656.337	5738.400
656.465	5806.762
656.593	5830.413
656.721	5775.012
656.849	5846.163
656.977	5804.000
657.105	5821.262
657.233	5785.913
657.362	5822.075
657.490	5831.450
657.618	5831.738
657.746	5840.375
657.874	5857.712
658.002	5863.800
658.130	5873.163
658.258	5880.163
658.387	5926.012
658.515	5889.613
658.643	5956.850
658.771	5918.550
658.899	5939.113
659.027	5943.788
659.155	5969.875
659.283	6169.275
659.412	5988.850
659.540	6087.887
659.668	5977.325
659.796	6049.300
659.924	6080.163
660.052	6026.913
660.180	6072.125
660.308	6050.812
660.437	6063.637
660.565	6087.400
660.693	6080.900
660.821	6062.512
660.949	6083.562
661.077	6075.925
661.205	6108.400
661.333	6107.913
661.462	6217.800
661.590	6186.975
661.718	6348.762
661.846	6274.050
661.974	6328.250
662.102	6196.375
662.230	6236.613
662.358	6188.150
662.487	6255.775
662.615	6199.538
662.743	6200.337
662.871	6223.625
662.999	6228.712
663.127	6215.775
663.255	6345.587
663.383	6358.337
663.512	6260.775
663.640	6302.613
663.768	6277.962
663.896	6297.025
664.024	6365.725
664.152	6351.850
664.280	6336.738
664.408	6344.387
664.537	6403.275
664.665	6292.900
664.793	6304.700
664.921	6351.525
665.049	6386.613
665.177	6381.200
665.305	6393.512
665.433	6395.113
665.562	6389.262
665.690	6445.887
665.818	6600.962
665.946	6462.687
666.074	6430.637
666.202	6415.488
666.330	6452.413
666.458	6480.887
666.587	6404.562
666.715	6428.788
666.843	6444.725
666.971	6430.650
667.099	6491.687
667.227	6475.125
667.355	6506.050
667.483	6475.288
667.612	6488.350
667.740	6521.150
667.868	6571.538
667.996	6533.175
668.124	6505.775
668.252	6503.325
668.380	6507.600
668.508	6502.825
668.637	6512.425
668.765	6520.462
668.893	6575.512
669.021	6492.975
669.149	6592.100
669.277	6570.325
669.405	6530.238
669.533	6542.975
669.662	6780.275
669.790	6540.087
669.918	6672.800
670.046	6532.363
670.174	6627.950
670.302	6618.650
670.430	6574.250
670.558	6602.150
670.687	6536.625
670.815	6714.587
670.943	6496.663
671.071	6526.900
671.199	6554.738
671.327	6510.050
671.455	6515.225
671.583	6508.625
671.712	6666.288
671.840	6548.038
671.968	6470.012
672.096	6497.187
672.224	6455.538
672.352	6654.837
672.480	6482.500
672.608	6431.038
672.737	6445.700
672.865	6582.538
672.993	6463.687
673.121	6405.738
673.249	6421.225
673.377	6385.538
673.505	6406.887
673.633	6397.187
673.762	6362.788
673.890	6384.875
674.018	6596.413
674.146	6386.375
674.274	6384.113
674.402	6569.562
674.530	6366.962
674.658	6356.113
674.787	6303.725
674.915	6284.663
675.043	6389.937
675.171	6347.975
675.299	6278.375
675.427	6311.700
675.555	6263.887
675.683	6249.363
675.812	6272.837
675.940	6276.425
676.068	6258.988
676.196	6234.000
676.324	6242.738
676.452	6234.062
676.580	6224.100
676.708	6246.025
676.837	6268.387
676.965	6162.337
677.093	6198.587
677.221	6152.250
677.349	6158.863
677.477	6211.887
677.605	6156.975
677.733	6178.150
677.862	6068.725
677.990	6045.625
678.118	6081.350
678.246	6066.587
678.374	6067.025
678.502	5993.738
678.630	5980.900
678.758	5956.812
678.887	5982.675
679.015	5971.050
679.143	5942.613
679.271	5910.137
679.399	5938.025
679.527	5939.437
679.655	5878.288
679.783	5934.788
679.912	5889.437
680.040	5863.913
680.168	5869.450
680.296	5879.000
680.424	5800.163
680.552	5842.225
680.680	5902.262
680.808	5826.700
680.937	5756.762
681.065	5751.212
681.193	5787.475
681.321	5764.262
681.449	5709.825
681.577	5721.062
681.705	5744.375
681.833	5680.175
681.962	5643.525
682.090	5823.837
682.218	5619.450
682.346	5613.212
682.474	5665.062
682.602	5604.500
682.730	5629.775
682.858	5571.038
682.987	5654.075
683.115	5602.900
683.243	5568.312
683.371	5525.775
683.499	5532.962
683.627	5580.137
683.755	5608.300
683.883	5662.625
684.012	5528.387
684.140	5494.275
684.268	5466.400
684.396	5493.475
684.524	5536.262
684.652	5532.225
684.780	5525.762
684.908	5532.587
685.037	5432.437
685.165	5388.187
685.293	5407.562
685.421	5490.712
685.549	5343.125
685.677	5367.187
685.805	5524.988
685.933	5364.762
686.062	5318.150
686.190	5324.937
686.318	5376.675
686.446	5301.200
686.574	5291.212
686.702	5389.062
686.830	5253.700
686.958	5242.163
687.087	5255.300
687.215	5247.437
687.343	5183.300
687.471	5212.750
687.599	5194.087
687.727	5361.488
687.855	5179.238
687.983	5173.200
688.112	5243.962
688.240	5106.712
688.368	5076.812
688.496	5135.687
688.624	5195.925
688.752	5020.750
688.880	5043.650
689.008	5036.625
689.137	5016.500
689.265	4969.988
689.393	4981.000
689.521	4958.113
689.649	4956.925
689.777	4928.100
689.905	4923.113
690.033	4924.462
690.162	4899.738
690.290	4891.075
690.418	4880.613
690.546	4886.575
690.674	4911.488
690.802	4799.675
690.930	4828.387
691.058	4798.113
691.187	4780.525
691.315	4727.725
691.443	4802.587
691.571	4693.625
691.699	4725.350
691.827	4762.863
691.955	4637.750
692.083	4642.163
692.212	4755.350
692.340	4603.450
692.468	4590.887
692.596	4606.100
692.724	4704.900
692.852	4546.512
692.980	4558.137
693.108	4501.988
693.237	4444.825
693.365	4460.400
693.493	4418.025
693.621	4424.625
693.749	4401.738
693.877	4370.525
694.005	4460.475
694.133	4340.863
694.262	4353.825
694.390	4282.175
694.518	4264.600
694.646	4250.200
694.774	4256.300
694.902	4353.725
695.030	4298.288
695.158	4186.512
695.287	4158.812
695.415	4133.825
695.543	4158.725
695.671	4186.275
695.799	4104.075
695.927	4072.475
696.055	4067.988
696.183	4057.713
696.312	4015.713
696.440	4189.587
696.568	4060.150
696.696	3985.162
696.824	3909.200
696.952	3917.312
697.080	3893.025
697.208	3854.975
697.337	3947.825
697.465	3864.312
697.593	3794.550
697.721	3789.287
697.849	3798.450
697.977	3794.012
698.105	3780.000
698.233	3717.713
698.362	3725.400
698.490	3685.988
698.618	3684.075
698.746	3767.700
698.874	3663.450
699.002	3792.750
699.130	3615.550
699.258	3620.700
699.387	3575.213
699.515	3581.525
699.643	3535.550
699.771	3568.750
699.899	3497.512
700.027	3519.738
700.155	3462.662
700.283	3432.700
700.412	3466.037
700.540	3462.850
700.668	3459.762
700.796	3386.463
700.924	3380.225
701.052	3367.250
701.180	3486.088
701.308	3352.088
701.437	3284.200
701.565	3253.625
701.693	3257.287
701.821	3224.738
701.949	3231.937
702.077	3215.012
702.205	3176.713
702.333	3171.100
702.462	3143.825
702.590	3156.963
702.718	3121.238
702.846	3122.275
702.974	3062.262
703.102	3063.900
703.230	3182.238
703.358	3096.162
703.487	2994.262
703.615	3227.637
703.743	3012.488
703.871	2962.375
703.999	2991.213
704.127	3045.937
704.255	2871.300
704.383	3097.937
704.512	2917.088
704.640	2903.500
704.768	2826.750
704.896	2921.312
705.024	2823.512
705.152	2902.625
705.280	2808.062
705.408	2781.950
705.537	2750.575
705.665	2715.963
705.793	2731.525
705.921	2691.075
706.049	2719.100
706.177	2656.637
706.305	2659.700
706.433	2748.425
706.562	2637.738
706.690	2617.675
706.818	2586.850
706.946	2730.363
707.074	2583.762
707.202	2550.825
707.330	2588.750
707.458	2544.150
707.587	2519.800
707.715	2526.625
707.843	2526.312
707.971	2533.562
708.099	2527.613
708.227	2473.575
708.355	2471.125
708.483	2452.637
708.612	2450.275
708.740	2444.613
708.868	2424.075
708.996	2424.488
709.124	2396.713
709.252	2377.425
709.380	2366.575
709.508	2331.775
709.637	2333.012
709.765	2319.463
709.893	2305.600
710.021	2297.000
710.149	2293.412
710.277	2303.975
710.405	2274.562
710.533	2247.838
710.662	2228.625
710.790	2248.262
710.918	2210.287
711.046	2210.825
711.174	2208.225
711.302	2176.875
711.430	2159.863
711.558	2166.525
711.687	2146.187
711.815	2147.012
711.943	2139.187
712.071	2109.125
712.199	2109.287
712.327	2086.825
712.455	2069.025
712.583	2063.387
712.712	2088.512
712.840	2052.825
712.968	2020.987
713.096	2020.950
713.224	2001.350
713.352	1994.200
713.480	1964.550
713.608	1976.950
713.737	1940.725
713.865	1936.687
713.993	1917.412
714.121	1901.763
714.249	1908.625
714.377	1893.487
714.505	1900.175
714.633	1869.225
714.762	1847.037
714.890	1862.975
715.018	1844.963
715.146	1820.713
715.274	1815.838
715.402	1814.875
715.530	1809.812
715.658	1795.612
715.787	1784.838
715.915	1779.862
716.043	1760.275
716.171	1747.763
716.299	1772.463
716.427	1725.287
716.555	1726.400
716.683	1700.862
716.812	1695.588
716.940	1693.213
717.068	1665.575
717.196	1660.687
717.324	1645.213
717.452	1651.862
717.580	1629.537
717.708	1613.237
717.837	1635.537
717.965	1612.312
718.093	1596.725
718.221	1580.200
718.349	1575.925
718.477	1574.875
718.605	1548.912
718.733	1560.737
718.862	1546.088
718.990	1528.412
719.118	1522.825
719.246	1510.612
719.374	1499.338
719.502	1505.175
719.630	1496.187
719.758	1465.537
719.887	1460.187
720.015	1461.375
720.143	1444.362
720.271	1435.075
720.399	1430.575
720.527	1410.487
720.655	1400.375
720.783	1412.725
720.912	1391.787
721.040	1401.362
721.168	1370.963
721.296	1379.625
721.424	1369.525
721.552	1342.162
721.680	1337.713
721.808	1336.075
721.937	1327.787
722.065	1300.775
722.193	1289.138
722.321	1306.737
722.449	1285.138
722.577	1290.638
722.705	1269.525
722.833	1252.350
722.962	1261.838
723.090	1237.338
723.218	1233.275
723.346	1232.975
723.474	1223.775
723.602	1233.425
723.730	1209.513
723.858	1204.362
723.987	1213.950
724.115	1179.950
724.243	1178.550
724.371	1172.975
724.499	1165.625
724.627	1167.525
724.755	1147.075
724.883	1160.050
725.012	1136.650
725.140	1123.200
725.268	1120.263
725.396	1112.675
725.524	1112.838
725.652	1095.687
725.780	1096.037
725.908	1082.562
726.037	1084.825
726.165	1070.425
726.293	1052.900
726.421	1063.562
726.549	1045.638
726.677	1042.300
726.805	1026.912
726.933	1022.788
727.062	1007.175
727.190	1011.850
727.318	1004.788
727.446	1005.612
727.574	994.087
727.702	989.138
727.830	980.725
727.958	983.462
728.087	970.937
728.215	968.450
728.343	955.837
728.471	952.175
728.599	932.112
728.727	946.212
728.855	936.737
728.983	913.425
729.112	923.675
729.240	919.700
729.368	910.337
729.496	899.187
729.624	907.263
729.752	887.462
729.880	887.100
730.008	894.413
730.137	868.312
730.265	876.750
730.393	863.112
730.521	856.812
730.649	853.237
730.777	858.038
730.905	845.638
731.033	839.150
731.162	837.163
731.290	841.625
731.418	821.700
731.546	844.638
731.674	817.763
731.802	808.812
731.930	802.138
732.058	798.450
732.187	796.300
732.315	781.837
732.443	794.487
732.571	779.100
732.699	777.250
732.827	768.875
732.955	759.125
733.083	752.888
733.212	750.763
733.340	752.163
733.468	745.175
733.596	742.413
733.724	735.913
733.852	732.388
733.980	734.275
734.108	723.462
734.237	739.712
734.365	715.250
734.493	720.275
734.621	707.225
734.749	719.862
734.877	705.325
735.005	694.550
735.133	705.112
735.262	697.825
735.390	684.937
735.518	683.350
735.646	672.350
735.774	675.312
735.902	679.250
736.030	663.712
736.158	668.150
736.287	659.950
736.415	663.687
736.543	653.175
736.671	640.862
736.799	641.413
736.927	657.250
737.055	648.312
737.183	631.100
737.312	637.212
737.440	637.937
737.568	646.062
737.696	637.325
737.824	625.950
737.952	633.125
738.080	620.962
738.208	625.225
738.337	607.437
738.465	623.450
738.593	603.487
738.721	589.400
738.849	596.413
738.977	597.163
739.105	587.925
739.233	586.225
739.362	582.587
739.490	570.775
739.618	570.225
739.746	580.400
739.874	577.763
740.002	573.850
740.130	565.913
740.258	571.800
740.387	568.025
740.515	550.212
740.643	554.050
740.771	555.788
740.899	545.812
741.027	543.250
741.155	550.388
741.283	534.775
741.412	532.275
741.540	533.038
741.668	528.575
741.796	522.325
741.924	532.225
742.052	528.112
742.180	523.950
742.308	519.337
742.437	513.925
742.565	513.163
742.693	519.288
742.821	510.150
742.949	507.538
743.077	505.113
743.205	500.800
743.333	499.250
743.462	497.475
743.590	496.512
743.718	486.988
743.846	490.100
743.974	478.550
744.102	478.312
744.230	478.500
744.358	477.700
744.487	480.125
744.615	466.600
744.743	473.038
744.871	465.262
744.999	465.913
745.127	457.637
745.255	451.475
745.383	466.187
745.512	452.025
745.640	441.988
745.768	446.962
745.896	446.387
746.024	442.663
746.152	438.950
746.280	445.350
746.408	442.212
746.537	445.375
746.665	442.100
746.793	423.650
746.921	424.025
747.049	426.738
747.177	427.337
747.305	412.687
747.433	424.625
747.562	417.663
747.690	408.200
747.818	414.275
747.946	409.975
748.074	426.075
748.202	412.637
748.330	400.375
748.458	410.225
748.587	401.562
748.715	388.250
748.843	399.775
748.971	393.863
749.099	393.387
749.227	389.288
749.355	384.962
749.483	386.363
749.612	378.837
749.740	371.937
749.868	375.337
749.996	375.325
750.124	373.837
750.252	376.262
750.380	377.075
750.508	372.575
750.637	364.937
750.765	369.712
750.893	360.413
751.021	362.825
751.149	361.200
751.277	366.337
751.405	359.863
751.533	373.700
751.662	361.187
751.790	373.200
751.918	363.637
752.046	343.663
752.174	344.300
752.302	356.387
752.430	353.800
752.558	343.312
752.687	342.325
752.815	351.512
752.943	332.875
753.071	337.200
753.199	336.525
753.327	338.512
753.455	332.887
753.583	328.550
753.712	331.400
753.840	327.350
753.968	327.575
754.096	323.950
754.224	320.650
754.352	315.788
754.480	312.562
754.608	315.275
754.737	315.875
754.865	321.312
754.993	318.887
755.121	306.025
755.249	316.762
755.377	306.075
755.505	303.637
755.633	321.738
755.762	304.100
755.890	318.275
756.018	307.913
756.146	302.325
756.274	301.575
756.402	297.150
756.530	300.700
756.658	304.863
756.787	289.887
756.915	287.875
757.043	296.100
757.171	293.700
757.299	287.462
757.427	285.325
757.555	293.050
757.683	292.725
757.812	289.562
757.940	290.875
758.068	279.812
758.196	277.250
758.324	279.587
758.452	279.212
758.580	274.725
758.708	277.562
758.837	272.637
758.965	284.562
759.093	276.100
759.221	267.200
759.349	273.450
759.477	266.500
759.605	266.637
759.733	264.738
759.862	270.900
759.990	259.900
760.118	268.150
760.246	260.450
760.374	261.962
760.502	260.512
760.630	257.475
760.758	252.200
760.887	248.988
761.015	252.113
761.143	255.450
761.271	248.200
761.399	244.363
761.527	247.887
761.655	249.325
761.783	248.787
761.912	242.975
762.040	248.975
762.168	245.575
762.296	243.125
762.424	237.162
762.552	239.375
762.680	245.488
762.808	238.637
762.937	241.012
763.065	239.613
763.193	238.437
763.321	236.075
763.449	231.162
763.577	229.137
763.705	238.275
763.833	254.075
763.962	229.287
764.090	230.050
764.218	227.287
764.346	230.300
764.474	225.287
764.602	227.650
764.730	222.950
764.858	225.500
764.987	226.713
765.115	228.537
765.243	233.387
765.371	216.062
765.499	214.625
765.627	218.062
765.755	214.450
765.883	216.662
766.012	220.012
766.140	212.762
766.268	212.213
766.396	213.437
766.524	211.162
766.652	205.450
766.780	207.075
766.908	214.275
767.037	207.475
767.165	206.650
767.293	216.463
767.421	208.937
767.549	203.062
767.677	206.925
767.805	196.387
767.933	205.975
768.062	205.100
768.190	203.037
768.318	201.588
768.446	214.075
768.574	210.750
768.702	205.000
768.830	201.812
768.958	193.537
769.087	205.525
769.215	200.713
769.343	197.675
769.471	199.437
769.599	200.812
769.727	195.975
769.855	197.625
769.983	191.850
770.112	192.738
770.240	197.525
770.368	191.338
770.496	196.687
770.624	189.900
770.752	196.350
770.880	204.100
771.008	192.887
771.137	185.838
771.265	191.937
771.393	190.725
771.521	190.113
771.649	186.162
771.777	188.312
771.905	189.400
772.033	187.325
772.162	187.988
772.290	186.725
772.418	195.463
772.546	187.012
772.674	185.825
772.802	187.300
772.930	190.988
773.058	182.725
773.187	186.762
773.315	184.550
773.443	184.250
773.571	183.787
773.699	179.925
773.827	176.400
773.955	184.900
774.083	194.437
774.212	177.500
774.340	178.350
774.468	179.875
774.596	180.400
774.724	186.037
774.852	172.700
774.980	179.575
775.108	176.363
775.237	173.812
775.365	173.662
775.493	176.687
775.621	175.262
775.749	175.625
775.877	176.838
776.005	170.738
776.133	177.725
776.262	178.075
776.390	169.912
776.518	180.562
776.646	167.050
776.774	170.588
776.902	172.975
777.030	169.725
777.158	170.687
777.287	175.363
777.415	171.738
777.543	167.988
777.671	165.125
777.799	164.037
777.927	167.550
778.055	170.975
778.183	170.300
778.312	163.838
778.440	160.637
778.568	168.162
778.696	163.113
778.824	167.762
778.952	164.937
779.080	163.113
779.208	171.500
779.337	167.525
779.465	171.213
779.593	166.387
779.721	169.387
779.849	159.488
779.977	168.350
780.105	159.738
780.233	163.137
780.362	173.637
780.490	163.850
780.618	160.863
780.746	161.062
780.874	154.550
781.002	157.875
781.130	160.662
781.258	158.775
781.387	165.838
781.515	159.512
781.643	157.738
781.771	165.600
781.899	158.575
782.027	160.750
782.155	156.363
782.283	154.937
782.412	160.575
782.540	162.350
782.668	157.088
782.796	151.650
782.924	155.675
783.052	150.975
783.180	158.387
783.308	150.550
783.437	156.925
783.565	158.687
783.693	155.600
783.821	158.338
783.949	156.425
784.077	158.075
784.205	156.575
784.333	164.512
784.462	148.687
784.590	156.787
784.718	152.100
784.846	147.850
784.974	155.350
785.102	158.500
785.230	152.800
785.358	162.062
785.487	156.125
785.615	153.187
785.743	149.125
785.871	148.512
785.999	150.187
786.127	144.463
786.255	157.537
786.383	155.700
786.512	149.400
786.640	148.762
786.768	155.675
786.896	146.863
787.024	148.512
787.152	148.325
787.280	146.150
787.408	145.287
787.537	148.488
787.665	148.900
787.793	148.887
787.921	148.662
788.049	145.600
788.177	141.137
788.305	145.275
788.433	150.838
788.562	143.213
788.690	145.225
788.818	142.187
788.946	145.537
789.074	140.037
789.202	144.512
789.330	142.787
789.458	145.100
789.587	145.838
789.715	142.187
789.843	145.937
789.971	139.400
790.099	138.137
790.227	139.325
790.355	140.463
790.483	145.912
790.612	140.537
790.740	140.662
790.868	145.625
790.996	143.937
791.124	142.988
791.252	141.475
791.380	143.012
791.508	139.800
791.637	146.925
791.765	140.713
791.893	138.825
792.021	147.963
792.149	138.100
792.277	141.100
792.405	141.963
792.533	147.150
792.662	136.162
792.790	140.975
792.918	144.250
793.046	135.500
793.174	138.500
793.302	137.338
793.430	137.875
793.558	142.425
793.687	137.150
793.815	141.325
793.943	139.187
794.071	137.363
794.199	132.863
794.327	136.375
794.455	157.750
794.583	149.725
794.712	141.800
794.840	132.425
794.968	134.613
795.096	140.625
795.224	134.187
795.352	132.225
795.480	140.275
795.608	137.900
795.737	137.412
795.865	134.975
795.993	129.537
796.121	134.812
796.249	136.925
796.377	133.425
796.505	140.787
796.633	132.950
796.762	131.525
796.890	139.062
797.018	132.463
797.146	133.762
797.274	127.675
797.402	131.662
797.530	129.287
797.658	127.138
797.787	135.687
797.915	133.050
798.043	135.425
798.171	137.775
798.299	131.100
798.427	128.750
798.555	131.025
798.683	127.362
798.812	130.050
798.940	131.600
799.068	134.350
799.196	136.175
799.324	127.500
799.452	137.088
799.580	132.300
799.708	137.325
799.837	128.000
799.965	126.912
800.093	128.687
800.221	129.875
800.349	131.637
800.477	128.700
800.605	131.262
800.733	134.262
800.862	131.075
800.990	143.200
801.118	131.512
801.246	123.675
801.374	128.925
801.502	129.312
801.630	122.612
801.758	127.562
801.887	132.537
802.015	128.500
802.143	126.500
802.271	125.650
802.399	129.875
802.527	133.125
802.655	130.238
802.783	133.912
802.912	131.713
803.040	128.450
803.168	122.400
803.296	119.187
803.424	121.362
803.552	123.937
803.680	123.937
803.808	127.312
803.937	124.362
804.065	125.600
804.193	125.475
804.321	137.150
804.449	123.013
804.577	124.800
804.705	127.112
804.833	124.912
804.962	125.050
805.090	120.638
805.218	129.588
805.346	122.475
805.474	125.062
805.602	137.262
805.730	123.787
805.858	118.937
805.987	130.700
806.115	132.537
806.243	126.025
806.371	116.963
806.499	121.825
806.627	119.050
806.755	126.537
806.883	118.250
807.012	121.375
807.140	125.263
807.268	119.862
807.396	128.975
807.524	118.412
807.652	123.000
807.780	136.338
807.908	120.875
808.037	128.325
808.165	124.700
808.293	124.575
808.421	135.200
808.549	119.562
808.677	116.675
808.805	131.088
808.933	119.987
809.062	118.013
809.190	140.300
809.318	122.437
809.446	120.000
809.574	121.737
809.702	121.388
809.830	116.138
809.958	123.013
810.087	116.912
810.215	121.225
810.343	131.713
810.471	121.937
810.599	117.937
810.727	117.900
810.855	117.588
810.983	122.200
811.112	119.275
811.240	119.787
811.368	117.787
811.496	125.050
811.624	121.650
811.752	118.100
811.880	114.763
812.008	113.812
812.137	120.500
812.265	118.862
812.393	119.138
812.521	118.500
812.649	118.838
812.777	119.588
812.905	122.400
813.033	113.862
813.162	112.675
813.290	112.513
813.418	122.487
813.546	118.400
813.674	117.925
813.802	122.437
813.930	116.237
814.058	112.838
814.187	114.687
814.315	116.713
814.443	114.925
814.571	113.013
814.699	119.763
814.827	116.550
814.955	112.338
815.083	117.513
815.212	120.612
815.340	117.138
815.468	113.550
815.596	113.200
815.724	110.987
815.852	115.162
815.980	114.237
816.108	114.987
816.237	116.975
816.365	115.263
816.493	116.300
816.621	113.138
816.749	113.500
816.877	115.775
817.005	119.237
817.133	114.825
817.262	114.537
817.390	123.025
817.518	114.062
817.646	117.937
817.774	114.225
817.902	116.787
818.030	114.937
818.158	117.513
818.287	114.525
818.415	110.625
818.543	113.612
818.671	116.500
818.799	114.900
818.927	115.650
819.055	113.675
819.183	109.975
819.312	112.450
819.440	118.862
819.568	113.825
819.696	118.937
819.824	113.812
819.952	113.487
820.080	109.325
820.208	111.675
820.337	111.237
820.465	112.213
820.593	113.213
820.721	114.600
820.849	111.000
820.977	110.700
821.105	111.787
821.233	108.550
821.362	115.625
821.490	114.100
821.618	111.138
821.746	113.225
821.874	111.475
822.002	112.588
822.130	114.737
822.258	109.675
822.387	112.625
822.515	111.625
822.643	112.950
822.771	110.450
822.899	114.700
823.027	113.638
823.155	106.713
823.283	112.975
823.412	115.625
823.540	115.325
823.668	129.875
823.796	112.725
823.924	113.987
824.052	115.687
824.180	110.138
824.308	109.975
824.437	112.000
824.565	108.937
824.693	113.312
824.821	111.812
824.949	111.037
825.077	111.937
825.205	117.000
825.333	112.450
825.462	111.575
825.590	108.763
825.718	115.750
825.846	110.600
825.974	113.050
826.102	111.287
826.230	111.187
826.358	110.112
826.487	109.000
826.615	110.225
826.743	114.763
826.871	115.500
826.999	115.963
827.127	114.987
827.255	112.100
827.383	112.187
827.512	111.937
827.640	113.100
827.768	111.500
827.896	108.862
828.024	109.450
828.152	111.800
828.280	111.600
828.408	109.912
828.537	109.013
828.665	108.775
828.793	108.963
828.921	109.562
829.049	110.950
829.177	106.412
829.305	107.312
829.433	109.300
829.562	109.912
829.690	109.138
829.818	110.850
829.946	112.725
830.074	108.225
830.202	111.500
830.330	111.225
830.458	120.187
830.587	109.362
830.715	108.225
830.843	109.075
830.971	108.650
831.099	113.800
831.227	108.300
831.355	108.513
831.483	105.237
831.612	109.825
831.740	107.888
831.868	119.562
831.996	106.987
832.124	112.588
832.252	107.550
832.380	105.812
832.508	106.812
832.637	112.513
832.765	112.500
832.893	115.225
833.021	111.588
833.149	107.088
833.277	106.487
833.405	108.000
833.533	107.912
833.662	109.300
833.790	111.150
833.918	110.250
834.046	111.350
834.174	112.862
834.302	108.937
834.430	106.888
834.558	115.400
834.687	108.388
834.815	109.375
834.943	109.575
835.071	107.013
835.199	107.612
835.327	108.700
835.455	105.100
835.583	108.300
835.712	105.325
835.840	109.687
835.968	107.213
836.096	109.138
836.224	110.750
836.352	109.975
836.480	110.662
836.608	113.450
836.737	107.237
836.865	109.125
836.993	107.125
837.121	107.937
837.249	107.900
837.377	110.963
837.505	110.150
837.633	107.888
837.762	108.425
837.890	109.562
838.018	114.112
838.146	105.075
838.274	112.300
838.402	113.350
838.530	105.775
838.658	105.662
838.787	108.463
838.915	108.888
839.043	109.287
839.171	112.112
839.299	108.650
839.427	109.912
839.555	116.550
839.683	109.787
839.812	108.312
839.940	106.950
840.068	106.737
840.196	108.312
840.324	112.388
840.452	114.037
840.580	115.088
840.708	111.112
840.837	111.088
840.965	112.275
841.093	110.812
841.221	112.437
841.349	110.062
841.477	110.525
841.605	107.025
841.733	108.312
841.862	108.825
841.990	108.950
842.118	105.975
842.246	103.775
842.374	106.263
842.502	105.900
842.630	108.862
842.758	110.312
842.887	111.138
843.015	109.513
843.143	111.775
843.271	110.562
843.399	109.675
843.527	106.088
843.655	105.638
843.783	107.850
843.912	108.850
844.040	110.575
844.168	115.375
844.296	113.650
844.424	108.812
844.552	106.875
844.680	109.862
844.808	111.850
844.937	108.175
845.065	105.912
845.193	109.638
845.321	107.325
845.449	108.062
845.577	106.200
845.705	106.638
845.833	108.050
845.962	105.612
846.090	107.062
846.218	107.175
846.346	108.763
846.474	108.388
846.602	105.088
846.730	105.425
846.858	105.400
846.987	106.312
847.115	108.600
847.243	110.525
847.371	110.850
847.499	109.650
847.627	106.287
847.755	105.963
847.883	107.638
848.012	108.325
848.140	109.037
848.268	108.838
848.396	105.412
848.524	104.800
848.652	106.537
848.780	104.838
848.908	108.912
849.037	109.100
849.165	107.600
849.293	106.925
849.421	110.388
849.549	108.737
849.677	106.600
849.805	114.200
849.933	109.662
850.062	106.062
850.190	104.338
850.318	106.950
850.446	106.800
850.574	106.575
850.702	106.050
850.830	105.487
850.958	105.537
851.087	107.200
851.215	108.025
851.343	106.525
851.471	105.775
851.599	108.263
851.727	105.475
851.855	108.963
851.983	107.437
852.112	109.388
852.240	108.875
852.368	106.862
852.496	108.475
852.624	105.650
852.752	105.525
852.880	109.213
853.008	113.950
853.137	106.650
853.265	108.250
853.393	114.500
853.521	112.825
853.649	114.900
853.777	106.850
853.905	108.463
854.033	109.013
854.162	110.925
854.290	105.112
854.418	103.950
854.546	106.550
854.674	107.713
854.802	105.175
854.930	106.100
855.058	105.275
855.187	104.263
855.315	103.687
855.443	104.412
855.571	104.850
855.699	108.025
855.827	108.737
855.955	106.763
856.083	107.213
856.212	106.612
856.340	107.825
856.468	112.400
856.596	109.975
856.724	110.187
856.852	106.862
856.980	106.000
857.108	108.400
857.237	108.412
857.365	108.175
857.493	105.888
857.621	106.025
857.749	103.650
857.877	108.800
858.005	110.112
858.133	108.150
858.262	106.463
858.390	104.588
858.518	104.375
858.646	107.537
858.774	104.263
858.902	109.250
859.030	105.713
859.158	105.037
859.287	107.737
859.415	108.125
859.543	106.075
859.671	110.400
859.799	111.750
859.927	109.862
860.055	111.287
860.183	106.338
860.312	105.975
860.440	108.125
860.568	110.838
860.696	108.838
860.824	118.150
860.952	104.850
861.080	108.450
861.208	107.213
861.337	108.237
861.465	107.987
861.593	113.200
861.721	105.150
861.849	104.562
861.977	106.600
862.105	107.525
862.233	107.763
862.362	108.187
862.490	107.338
862.618	105.325
862.746	106.200
862.874	106.700
863.002	107.350
863.130	110.650
863.258	107.937
863.387	110.500
863.515	107.562
863.643	104.562
863.771	108.725
863.899	109.250
864.027	106.650
864.155	105.500
864.283	104.600
864.412	104.300
864.540	104.525
864.668	104.875
864.796	106.575
864.924	107.350
865.052	107.700
865.180	104.287
865.308	104.287
865.437	104.750
865.565	105.450
865.693	107.862
865.821	107.350
865.949	104.487
866.077	106.662
866.205	104.350
866.333	105.088
866.462	107.662
866.590	105.925
866.718	106.338
866.846	105.975
866.974	112.050
867.102	108.987
867.230	107.263
867.358	110.912
867.487	110.237
867.615	108.175
867.743	108.763
867.871	111.650
867.999	107.800
868.127	108.350
868.255	116.775
868.383	110.650
868.512	107.175
868.640	107.850
868.768	105.737
868.896	106.750
869.024	108.850
869.152	108.475
869.280	107.713
869.408	107.925
869.537	107.763
869.665	116.362
869.793	107.312
869.921	106.050
870.049	107.725
870.177	108.638
870.305	118.463
870.433	106.900
870.562	105.800
870.690	103.975
870.818	105.075
870.946	105.388
871.074	104.150
871.202	105.713
871.330	105.362
871.458	105.213
871.587	105.237
871.715	104.050
871.843	106.763
871.971	108.812
872.099	106.850
872.227	104.412
872.355	106.525
872.483	104.900
872.612	107.800
872.740	107.037
872.868	103.987
872.996	107.275
873.124	106.600
873.252	109.713
873.380	107.187
873.508	106.263
873.637	104.312
873.765	108.963
873.893	108.737
874.021	105.513
874.149	108.138
874.277	106.912
874.405	112.725
874.533	108.350
874.662	341.850
874.790	113.638
874.918	112.575
875.046	109.300
875.174	108.050
875.302	105.225
875.430	106.050
875.558	107.300
875.687	109.575
875.815	106.138
875.943	107.713
876.071	110.300
876.199	108.013
876.327	117.138
876.455	107.888
876.583	106.112
876.712	107.812
876.840	108.750
876.968	104.600
877.096	108.250
877.224	106.338
877.352	105.287
877.480	105.362
877.608	106.787
877.737	106.775
877.865	108.237
877.993	106.963
878.121	103.362
878.249	105.525
878.377	104.825
878.505	105.912
878.633	106.562
878.762	106.325
878.890	106.213
879.018	108.650
879.146	107.638
879.274	104.275
879.402	106.900
879.530	107.412
879.658	106.187
879.787	105.425
879.915	107.175
880.043	107.675
880.171	104.463
880.299	105.612
880.427	109.075
880.555	110.700
880.683	108.912
880.812	109.075
880.940	110.350
881.068	109.475
881.196	107.600
881.324	107.225
881.452	108.013
881.580	109.287
881.708	106.213
881.837	106.213
881.965	107.950
882.093	104.838
882.221	104.525
882.349	112.562
882.477	109.100
882.605	110.487
882.733	109.725
882.862	106.600
882.990	106.500
883.118	106.225
883.246	108.525
883.374	108.825
883.502	106.475
883.630	105.638
883.758	108.162
883.887	104.513
884.015	106.437
884.143	106.825
884.271	109.987
884.399	107.162
884.527	106.275
884.655	107.062
884.783	106.500
884.912	107.812
885.040	106.900
885.168	104.625
885.296	104.675
885.424	106.588
885.552	111.287
885.680	107.125
885.808	105.875
885.937	109.750
886.065	111.925
886.193	105.838
886.321	106.687
886.449	105.425
886.577	106.013
886.705	107.700
886.833	105.338
886.962	103.975
887.090	109.787
887.218	107.050
887.346	105.225
887.474	112.725
887.602	108.388
887.730	106.325
887.858	106.225
887.987	108.375
888.115	113.325
888.243	112.575
888.371	109.125
888.499	107.388
888.627	105.838
888.755	105.525
888.883	105.537
889.012	107.550
889.140	107.825
889.268	115.037
889.396	111.187
889.524	107.600
889.652	104.475
889.780	107.450
889.908	106.750
890.037	106.800
890.165	107.213
890.293	107.575
890.421	106.575
890.549	108.100
890.677	109.550
890.805	105.412
890.933	105.987
891.062	106.362
891.190	110.588
891.318	111.425
891.446	108.088
891.574	107.838
891.702	104.763
891.830	104.312
891.958	108.750
892.087	112.900
892.215	110.037
892.343	109.713
892.471	109.775
892.599	107.875
892.727	111.125
892.855	109.200
892.983	111.187
893.112	109.100
893.240	109.250
893.368	110.062
893.496	117.350
893.624	108.437
893.752	110.737
893.880	108.850
894.008	108.162
894.137	107.950
894.265	112.025
894.393	109.975
894.521	107.812
894.649	108.950
894.777	104.937
894.905	107.037
895.033	112.200
895.162	109.750
895.290	108.075
895.418	109.588
895.546	110.513
895.674	113.600
895.802	107.937
895.930	108.037
896.058	104.937
896.187	105.050
896.315	104.325
896.443	109.275
896.571	108.513
896.699	108.362
896.827	108.763
896.955	107.812
897.083	109.237
897.212	110.975
897.340	106.425
897.468	108.175
897.596	111.263
897.724	109.138
897.852	114.125
897.980	107.275
898.108	105.588
898.237	105.800
898.365	106.862
898.493	105.737
898.621	107.362
898.749	107.500
898.877	109.687
899.005	110.800
899.133	107.487
899.262	107.550
899.390	107.862
899.518	106.725
899.646	108.588
899.774	113.338
899.902	115.175
900.030	106.025
900.158	107.900
900.287	107.713
900.415	107.638
900.543	106.062
900.671	109.638
900.799	109.900
900.927	107.838
901.055	106.088
901.183	108.850
901.312	108.362
901.440	113.187
901.568	110.312
901.696	107.975
901.824	108.713
901.952	113.250
902.080	108.463
902.208	108.150
902.337	106.850
902.465	108.213
902.593	108.062
902.721	108.300
902.849	109.062
902.977	109.450
903.105	114.112
903.233	118.112
903.362	109.525
903.490	109.800
903.618	107.213
903.746	111.675
903.874	110.250
904.002	110.138
904.130	115.675
904.258	110.662
904.387	109.687
904.515	105.500
904.643	105.963
904.771	105.687
904.899	111.775
905.027	113.062
905.155	107.412
905.283	107.750
905.412	111.812
905.540	110.900
905.668	107.088
905.796	104.162
905.924	107.500
906.052	109.338
906.180	109.187
906.308	108.662
906.437	112.888
906.565	113.687
906.693	108.838
906.821	106.550
906.949	107.687
907.077	108.687
907.205	114.650
907.333	109.687
907.462	109.338
907.590	111.825
907.718	111.500
907.846	110.625
907.974	111.875
908.102	110.825
908.230	111.312
908.358	116.763
908.487	113.050
908.615	109.550
908.743	111.862
908.871	108.025
908.999	110.037
909.127	109.812
909.255	108.675
909.383	110.312
909.512	114.838
909.640	109.162
909.768	113.312
909.896	121.312
910.024	113.713
910.152	111.463
910.280	121.013
910.408	110.487
910.537	117.075
910.665	116.263
910.793	113.900
910.921	115.175
911.049	110.825
911.177	109.525
911.305	112.013
911.433	112.125
911.562	110.100
911.690	110.838
911.818	124.338
911.946	123.312
912.074	116.350
912.202	120.362
912.330	111.550
912.458	110.612
912.587	114.088
912.715	111.600
912.843	114.838
912.971	118.575
913.099	118.075
913.227	117.287
913.355	115.000
913.483	112.750
913.612	113.463
913.740	124.937
913.868	114.125
